t,env_flex,env_ext,act_flex,act_ext,cmd,ref,vel,pos
0.001,4.78,4.49,0.000,0.000,0.000,0.000,-3.009,19.984
0.006,4.77,4.49,0.000,0.000,0.000,0.000,-4.068,19.966
0.011,4.76,4.48,0.000,0.000,0.000,0.000,-4.909,19.943
0.016,4.71,4.47,0.000,0.000,0.000,0.000,-5.577,19.917
0.021,4.66,4.45,0.000,0.000,0.000,0.000,-5.891,19.888
0.026,4.62,4.44,0.000,0.000,0.000,0.000,-5.759,19.859
0.031,4.60,4.42,0.000,0.000,0.000,0.000,-5.530,19.831
0.036,4.55,4.39,0.000,0.000,0.000,0.000,-5.253,19.804
0.041,4.54,4.40,0.000,0.000,0.000,0.000,-4.922,19.778
0.046,4.57,4.48,0.000,0.000,0.000,0.000,-4.543,19.755
0.051,4.63,4.57,0.000,0.000,0.000,0.000,-4.150,19.733
0.056,4.66,4.62,0.000,0.000,0.000,0.000,-3.734,19.713
0.061,4.66,4.64,0.000,0.000,0.000,0.000,-3.295,19.696
0.066,4.64,4.65,0.000,0.000,0.000,0.000,-2.854,19.680
0.071,4.61,4.65,0.000,0.000,0.000,0.000,-2.403,19.667
0.076,4.60,4.67,0.000,0.000,0.000,0.000,-1.941,19.656
0.081,4.60,4.69,0.000,0.000,0.000,0.000,-1.470,19.648
0.086,4.63,4.74,0.000,0.000,0.000,0.000,-1.096,19.641
0.091,4.66,4.81,0.000,0.000,0.000,0.000,-0.831,19.637
0.096,4.70,4.86,0.000,0.000,0.000,0.000,-0.605,19.633
0.101,4.74,4.89,0.000,0.000,0.000,0.000,-0.254,19.631
0.106,4.80,4.91,0.000,0.000,0.000,0.000,0.000,19.630
0.111,4.82,4.97,0.000,0.000,0.000,0.000,0.000,19.630
0.116,4.81,5.05,0.000,0.000,0.000,0.000,0.000,19.630
0.121,4.83,5.10,0.000,0.000,0.000,0.000,0.000,19.630
0.126,4.85,5.13,0.000,0.000,0.000,0.000,0.000,19.630
0.131,4.89,5.15,0.000,0.000,0.000,0.000,0.000,19.630
0.136,4.94,5.21,0.000,0.000,0.000,0.000,0.000,19.630
0.141,4.96,5.25,0.000,0.000,0.000,0.000,0.000,19.630
0.146,4.95,5.26,0.000,0.000,0.000,0.000,0.000,19.630
0.151,4.95,5.24,0.000,0.000,0.000,0.000,0.000,19.630
0.156,4.95,5.24,0.000,0.000,0.000,0.000,0.000,19.630
0.161,4.94,5.27,0.000,0.000,0.000,0.000,0.000,19.630
0.166,4.94,5.33,0.000,0.000,0.000,0.000,0.000,19.630
0.171,4.91,5.38,0.000,0.000,0.000,0.000,0.000,19.630
0.176,4.88,5.43,0.000,0.000,0.000,0.000,0.000,19.630
0.181,4.87,5.45,0.000,0.000,0.000,0.000,0.000,19.630
0.186,4.90,5.46,0.000,0.000,0.000,0.000,0.000,19.630
0.191,4.95,5.45,0.000,0.000,0.000,0.000,0.000,19.630
0.196,5.00,5.44,0.000,0.000,0.000,0.000,0.000,19.630
0.201,5.02,5.40,0.000,0.000,0.000,0.000,0.000,19.630
0.206,5.03,5.38,0.000,0.000,0.000,0.000,0.000,19.630
0.211,5.00,5.39,0.000,0.000,0.000,0.000,0.000,19.630
0.216,4.96,5.39,0.000,0.000,0.000,0.000,0.000,19.630
0.221,4.94,5.40,0.000,0.000,0.000,0.000,0.000,19.630
0.226,4.94,5.41,0.000,0.000,0.000,0.000,0.000,19.630
0.231,4.93,5.45,0.000,0.000,0.000,0.000,0.000,19.630
0.236,4.91,5.47,0.000,0.000,0.000,0.000,0.000,19.630
0.241,4.88,5.47,0.000,0.000,0.000,0.000,0.000,19.630
0.246,4.84,5.48,0.000,0.000,0.000,0.000,0.000,19.630
0.251,4.80,5.50,0.000,0.000,0.000,0.000,0.000,19.630
0.256,4.78,5.50,0.000,0.000,0.000,0.000,0.000,19.630
0.261,4.77,5.46,0.000,0.000,0.000,0.000,0.000,19.630
0.266,4.76,5.48,0.000,0.000,0.000,0.000,0.000,19.630
0.271,4.75,5.49,0.000,0.000,0.000,0.000,0.000,19.630
0.276,4.80,5.47,0.000,0.000,0.000,0.000,0.000,19.630
0.281,4.84,5.45,0.000,0.000,0.000,0.000,0.000,19.630
0.286,4.87,5.46,0.000,0.000,0.000,0.000,0.000,19.630
0.291,4.89,5.48,0.000,0.000,0.000,0.000,0.000,19.630
0.296,4.92,5.53,0.000,0.000,0.000,0.000,0.000,19.630
0.301,4.94,5.55,0.000,0.000,0.000,0.000,0.000,19.630
0.306,4.95,5.54,0.000,0.000,0.000,0.000,0.000,19.630
0.311,4.98,5.51,0.000,0.000,0.000,0.000,0.000,19.630
0.316,5.03,5.49,0.000,0.000,0.000,0.000,0.000,19.630
0.321,5.09,5.45,0.000,0.000,0.000,0.000,0.000,19.630
0.326,5.16,5.42,0.000,0.000,0.000,0.000,0.000,19.630
0.331,5.19,5.40,0.000,0.000,0.000,0.000,0.000,19.630
0.336,5.20,5.35,0.000,0.000,0.000,0.000,0.000,19.630
0.341,5.21,5.32,0.000,0.000,0.000,0.000,0.000,19.630
0.346,5.22,5.27,0.000,0.000,0.000,0.000,0.000,19.630
0.351,5.23,5.23,0.000,0.000,0.000,0.000,0.000,19.630
0.356,5.22,5.18,0.000,0.000,0.000,0.000,0.000,19.630
0.361,5.26,5.10,0.000,0.000,0.000,0.000,0.000,19.630
0.366,5.30,5.04,0.000,0.000,0.000,0.000,0.000,19.630
0.371,5.32,5.01,0.000,0.000,0.000,0.000,0.000,19.630
0.376,5.32,4.99,0.000,0.000,0.000,0.000,0.000,19.630
0.381,5.30,4.96,0.000,0.000,0.000,0.000,0.000,19.630
0.386,5.30,4.97,0.000,0.000,0.000,0.000,0.000,19.630
0.391,5.27,4.97,0.000,0.000,0.000,0.000,0.000,19.630
0.396,5.22,4.96,0.000,0.000,0.000,0.000,0.000,19.630
0.401,5.16,4.96,0.000,0.000,0.000,0.000,0.000,19.630
0.406,5.11,4.95,0.000,0.000,0.000,0.000,0.000,19.630
0.411,5.05,4.94,0.000,0.000,0.000,0.000,0.000,19.630
0.416,4.97,4.93,0.000,0.000,0.000,0.000,0.000,19.630
0.421,4.87,4.96,0.000,0.000,0.000,0.000,0.000,19.630
0.426,4.79,4.99,0.000,0.000,0.000,0.000,0.000,19.630
0.431,4.74,4.99,0.000,0.000,0.000,0.000,0.000,19.630
0.436,4.72,4.96,0.000,0.000,0.000,0.000,0.000,19.630
0.441,4.71,4.94,0.000,0.000,0.000,0.000,0.000,19.630
0.446,4.71,4.92,0.000,0.000,0.000,0.000,0.000,19.630
0.451,4.71,4.90,0.000,0.000,0.000,0.000,0.000,19.630
0.456,4.75,4.84,0.000,0.000,0.000,0.000,0.000,19.630
0.461,4.79,4.83,0.000,0.000,0.000,0.000,0.000,19.630
0.466,4.82,4.86,0.000,0.000,0.000,0.000,0.000,19.630
0.471,4.89,4.90,0.000,0.000,0.000,0.000,0.000,19.630
0.476,4.96,4.94,0.000,0.000,0.000,0.000,0.000,19.630
0.481,5.01,4.96,0.000,0.000,0.000,0.000,0.000,19.630
0.486,5.07,4.95,0.000,0.000,0.000,0.000,0.000,19.630
0.491,5.09,4.95,0.000,0.000,0.000,0.000,0.000,19.630
0.496,5.08,4.92,0.000,0.000,0.000,0.000,0.000,19.630
0.501,5.05,4.92,0.000,0.000,0.000,0.000,0.000,19.630
0.506,5.03,4.90,0.000,0.000,0.000,0.000,0.000,19.630
0.511,5.02,4.89,0.000,0.000,0.000,0.000,0.000,19.630
0.516,5.02,4.90,0.000,0.000,0.000,0.000,0.000,19.630
0.521,5.03,4.88,0.000,0.000,0.000,0.000,0.000,19.630
0.526,5.00,4.90,0.000,0.000,0.000,0.000,0.000,19.630
0.531,4.96,4.93,0.000,0.000,0.000,0.000,0.000,19.630
0.536,4.94,4.95,0.000,0.000,0.000,0.000,0.000,19.630
0.541,4.94,4.97,0.000,0.000,0.000,0.000,0.000,19.630
0.546,4.90,4.97,0.000,0.000,0.000,0.000,0.000,19.630
0.551,4.87,4.97,0.000,0.000,0.000,0.000,0.000,19.630
0.556,4.85,4.98,0.000,0.000,0.000,0.000,0.000,19.630
0.561,4.81,4.99,0.000,0.000,0.000,0.000,0.000,19.630
0.566,4.77,5.00,0.000,0.000,0.000,0.000,0.000,19.630
0.571,4.73,5.01,0.000,0.000,0.000,0.000,0.000,19.630
0.576,4.70,5.01,0.000,0.000,0.000,0.000,0.000,19.630
0.581,4.68,5.03,0.000,0.000,0.000,0.000,0.000,19.630
0.586,4.69,5.04,0.000,0.000,0.000,0.000,0.000,19.630
0.591,4.69,5.11,0.000,0.000,0.000,0.000,0.000,19.630
0.596,4.68,5.17,0.000,0.000,0.000,0.000,0.000,19.630
0.601,4.67,5.24,0.000,0.000,0.000,0.000,0.000,19.630
0.606,4.64,5.28,0.000,0.000,0.000,0.000,0.000,19.630
0.611,4.62,5.32,0.000,0.000,0.000,0.000,0.000,19.630
0.616,4.61,5.33,0.000,0.000,0.000,0.000,0.000,19.630
0.621,4.58,5.33,0.000,0.000,0.000,0.000,0.000,19.630
0.626,4.54,5.28,0.000,0.000,0.000,0.000,0.000,19.630
0.631,4.52,5.22,0.000,0.000,0.000,0.000,0.000,19.630
0.636,4.50,5.15,0.000,0.000,0.000,0.000,0.000,19.630
0.641,4.47,5.10,0.000,0.000,0.000,0.000,0.000,19.630
0.646,4.45,5.10,0.000,0.000,0.000,0.000,0.000,19.630
0.651,4.46,5.15,0.000,0.000,0.000,0.000,0.000,19.630
0.656,4.46,5.17,0.000,0.000,0.000,0.000,0.000,19.630
0.661,4.46,5.18,0.000,0.000,0.000,0.000,0.000,19.630
0.666,4.45,5.20,0.000,0.000,0.000,0.000,0.000,19.630
0.671,4.46,5.23,0.000,0.000,0.000,0.000,0.000,19.630
0.676,4.48,5.26,0.000,0.000,0.000,0.000,0.000,19.630
0.681,4.49,5.31,0.000,0.000,0.000,0.000,0.000,19.630
0.686,4.51,5.35,0.000,0.000,0.000,0.000,0.000,19.630
0.691,4.57,5.38,0.000,0.000,0.000,0.000,0.000,19.630
0.696,4.61,5.44,0.000,0.000,0.000,0.000,0.000,19.630
0.701,4.65,5.49,0.000,0.000,0.000,0.000,0.000,19.630
0.706,4.67,5.52,0.000,0.000,0.000,0.000,0.000,19.630
0.711,4.67,5.50,0.000,0.000,0.000,0.000,0.000,19.630
0.716,4.65,5.51,0.000,0.000,0.000,0.000,0.000,19.630
0.721,4.64,5.56,0.000,0.000,0.000,0.000,0.000,19.630
0.726,4.64,5.60,0.000,0.000,0.000,0.000,0.000,19.630
0.731,4.62,5.62,0.000,0.000,0.000,0.000,0.000,19.630
0.736,4.58,5.62,0.000,0.000,0.000,0.000,0.000,19.630
0.741,4.53,5.65,0.000,0.000,0.000,0.000,0.000,19.630
0.746,4.50,5.67,0.000,0.000,0.000,0.000,0.000,19.630
0.751,4.45,5.72,0.000,0.000,0.000,0.000,0.000,19.630
0.756,4.42,5.75,0.000,0.000,0.000,0.000,0.000,19.630
0.761,4.40,5.77,0.000,0.000,0.000,0.000,0.000,19.630
0.766,4.36,5.81,0.000,0.000,0.000,0.000,0.000,19.630
0.771,4.32,5.82,0.000,0.000,0.000,0.000,0.000,19.630
0.776,4.28,5.85,0.000,0.000,0.000,0.000,0.000,19.630
0.781,4.25,5.86,0.000,0.000,0.000,0.000,0.000,19.630
0.786,4.24,5.85,0.000,0.000,0.000,0.000,0.000,19.630
0.791,4.22,5.88,0.000,0.000,0.000,0.000,0.000,19.630
0.796,4.23,5.90,0.000,0.000,0.000,0.000,0.000,19.630
0.801,4.27,5.93,0.000,0.000,0.000,0.000,0.000,19.630
0.806,4.31,5.94,0.000,0.000,0.000,0.000,0.000,19.630
0.811,4.34,5.95,0.000,0.000,0.000,0.000,0.000,19.630
0.816,4.35,5.92,0.000,0.000,0.000,0.000,0.000,19.630
0.821,4.35,5.85,0.000,0.000,0.000,0.000,0.000,19.630
0.826,4.39,5.77,0.000,0.000,0.000,0.000,0.000,19.630
0.831,4.44,5.72,0.000,0.000,0.000,0.000,0.000,19.630
0.836,4.49,5.71,0.000,0.000,0.000,0.000,0.000,19.630
0.841,4.53,5.71,0.000,0.000,0.000,0.000,0.000,19.630
0.846,4.55,5.73,0.000,0.000,0.000,0.000,0.000,19.630
0.851,4.58,5.73,0.000,0.000,0.000,0.000,0.000,19.630
0.856,4.62,5.73,0.000,0.000,0.000,0.000,0.000,19.630
0.861,4.63,5.73,0.000,0.000,0.000,0.000,0.000,19.630
0.866,4.65,5.72,0.000,0.000,0.000,0.000,0.000,19.630
0.871,4.68,5.71,0.000,0.000,0.000,0.000,0.000,19.630
0.876,4.74,5.68,0.000,0.000,0.000,0.000,0.000,19.630
0.881,4.78,5.65,0.000,0.000,0.000,0.000,0.000,19.630
0.886,4.80,5.62,0.000,0.000,0.000,0.000,0.000,19.630
0.891,4.81,5.59,0.000,0.000,0.000,0.000,0.000,19.630
0.896,4.80,5.58,0.000,0.000,0.000,0.000,0.000,19.630
0.901,4.82,5.55,0.000,0.000,0.000,0.000,0.000,19.630
0.906,4.83,5.51,0.000,0.000,0.000,0.000,0.000,19.630
0.911,4.84,5.46,0.000,0.000,0.000,0.000,0.000,19.630
0.916,4.84,5.44,0.000,0.000,0.000,0.000,0.000,19.630
0.921,4.84,5.41,0.000,0.000,0.000,0.000,0.000,19.630
0.926,4.85,5.37,0.000,0.000,0.000,0.000,0.000,19.630
0.931,4.88,5.32,0.000,0.000,0.000,0.000,0.000,19.630
0.936,4.90,5.25,0.000,0.000,0.000,0.000,0.000,19.630
0.941,4.91,5.17,0.000,0.000,0.000,0.000,0.000,19.630
0.946,4.89,5.09,0.000,0.000,0.000,0.000,0.000,19.630
0.951,4.89,5.03,0.000,0.000,0.000,0.000,0.000,19.630
0.956,4.89,5.00,0.000,0.000,0.000,0.000,0.000,19.630
0.961,4.88,4.96,0.000,0.000,0.000,0.000,0.000,19.630
0.966,4.88,4.95,0.000,0.000,0.000,0.000,0.000,19.630
0.971,4.88,4.95,0.000,0.000,0.000,0.000,0.000,19.630
0.976,4.90,4.97,0.000,0.000,0.000,0.000,0.000,19.630
0.981,4.92,4.95,0.000,0.000,0.000,0.000,0.000,19.630
0.986,4.93,4.93,0.000,0.000,0.000,0.000,0.000,19.630
0.991,4.93,4.92,0.000,0.000,0.000,0.000,0.000,19.630
0.996,4.95,4.89,0.000,0.000,0.000,0.000,0.000,19.630
1.001,4.94,4.86,0.000,0.000,0.000,0.000,0.000,19.630
1.006,5.38,4.81,0.000,0.000,0.000,0.000,0.000,19.630
1.011,6.70,4.74,0.000,0.000,0.000,0.000,0.000,19.630
1.016,8.57,4.65,0.000,0.000,0.000,0.000,0.000,19.630
1.021,10.73,4.57,0.000,0.000,0.000,0.000,0.000,19.630
1.026,13.14,4.49,0.000,0.000,0.000,0.000,0.000,19.630
1.031,15.59,4.40,0.000,0.000,0.000,0.000,0.000,19.630
1.036,18.12,4.30,0.000,0.000,0.000,0.000,0.000,19.630
1.041,20.59,4.22,0.000,0.000,0.000,0.000,0.000,19.630
1.046,23.27,4.15,0.000,0.000,0.000,0.000,0.000,19.630
1.051,26.13,4.14,0.000,0.000,0.000,0.000,0.000,19.630
1.056,28.82,4.18,0.000,0.000,0.000,0.000,0.000,19.630
1.061,31.63,4.25,0.011,0.000,0.000,0.000,0.000,19.630
1.066,34.12,4.31,0.027,0.000,0.000,0.000,0.000,19.630
1.071,36.68,4.35,0.043,0.000,0.000,0.000,0.000,19.630
1.076,39.11,4.37,0.058,0.000,0.000,0.000,0.000,19.630
1.081,41.45,4.41,0.072,0.000,0.000,0.000,0.000,19.630
1.086,43.73,4.45,0.087,0.000,0.178,0.178,0.000,19.630
1.091,45.78,4.48,0.099,0.000,0.524,0.524,0.000,19.630
1.096,47.37,4.57,0.109,0.000,0.793,0.793,0.000,19.630
1.101,48.90,4.64,0.119,0.000,1.052,1.052,0.000,19.630
1.106,50.42,4.68,0.128,0.000,1.310,1.310,0.000,19.630
1.111,52.05,4.73,0.138,0.000,1.585,1.585,0.000,19.630
1.116,53.62,4.80,0.148,0.000,1.850,1.850,0.000,19.630
1.121,55.09,4.86,0.157,0.000,2.099,2.099,0.000,19.630
1.126,56.72,4.93,0.167,0.000,2.374,2.374,0.000,19.630
1.131,58.58,4.96,0.179,0.000,2.688,2.688,0.000,19.630
1.136,60.21,5.00,0.189,0.000,2.965,2.965,0.000,19.630
1.141,61.53,5.02,0.197,0.000,3.187,3.187,0.000,19.630
1.146,62.41,5.02,0.203,0.000,3.337,3.337,0.000,19.630
1.151,62.96,5.02,0.206,0.000,3.430,3.430,0.000,19.630
1.156,63.55,5.03,0.210,0.000,3.529,3.529,0.000,19.630
1.161,63.71,5.04,0.211,0.000,3.556,3.556,0.000,19.630
1.166,63.53,5.07,0.210,0.000,3.525,3.525,0.000,19.630
1.171,63.20,5.10,0.208,0.000,3.471,3.471,0.000,19.630
1.176,63.35,5.11,0.209,0.000,3.495,3.495,0.000,19.630
1.181,64.21,5.12,0.214,0.000,3.641,3.641,0.759,19.632
1.186,65.30,5.13,0.221,0.000,3.826,3.826,1.536,19.638
1.191,66.49,5.11,0.228,0.000,4.026,4.026,2.295,19.648
1.196,68.09,5.08,0.238,0.000,4.297,4.297,3.122,19.661
1.201,69.02,5.05,0.244,0.000,4.454,4.454,3.850,19.679
1.206,69.89,4.98,0.249,0.000,4.601,4.601,4.482,19.700
1.211,70.72,4.88,0.254,0.000,4.741,4.741,4.879,19.723
1.216,71.38,4.78,0.259,0.000,4.852,4.852,5.246,19.748
1.221,72.11,4.72,0.263,0.000,4.976,4.976,5.556,19.775
1.226,72.72,4.65,0.267,0.000,5.079,5.079,5.823,19.804
1.231,73.59,4.61,0.272,0.000,5.227,5.227,6.118,19.834
1.236,74.22,4.62,0.276,0.000,5.334,5.334,6.383,19.865
1.241,74.39,4.59,0.277,0.000,5.361,5.361,6.552,19.897
1.246,74.38,4.53,0.277,0.000,5.359,5.359,6.673,19.930
1.251,75.01,4.47,0.281,0.000,5.467,5.467,6.858,19.964
1.256,75.95,4.44,0.287,0.000,5.626,5.626,7.016,19.999
1.261,76.29,4.42,0.289,0.000,5.683,5.683,7.077,20.034
1.266,76.51,4.43,0.291,0.000,5.721,5.721,7.077,20.069
1.271,76.33,4.44,0.289,0.000,5.690,5.690,6.996,20.105
1.276,76.25,4.45,0.289,0.000,5.677,5.677,6.869,20.139
1.281,76.73,4.46,0.292,0.000,5.758,5.758,6.843,20.174
1.286,77.12,4.47,0.294,0.000,5.824,5.824,6.802,20.208
1.291,77.30,4.49,0.295,0.000,5.853,5.853,6.731,20.242
1.296,77.46,4.48,0.296,0.000,5.880,5.880,6.639,20.275
1.301,77.78,4.47,0.298,0.000,5.936,5.936,6.589,20.308
1.306,78.07,4.45,0.300,0.000,5.984,5.984,6.540,20.341
1.311,78.32,4.39,0.302,0.000,6.027,6.027,6.493,20.373
1.316,78.50,4.36,0.303,0.000,6.056,6.056,6.447,20.406
1.321,79.05,4.35,0.306,0.000,6.150,6.150,6.458,20.438
1.326,79.88,4.34,0.311,0.000,6.291,6.291,6.538,20.471
1.331,80.44,4.32,0.315,0.000,6.384,6.384,6.606,20.503
1.336,80.96,4.30,0.318,0.000,6.472,6.472,6.658,20.537
1.341,82.05,4.28,0.325,0.000,6.656,6.656,6.817,20.570
1.346,83.55,4.26,0.334,0.000,6.911,6.911,7.082,20.605
1.351,84.26,4.23,0.339,0.000,7.030,7.030,7.240,20.641
1.356,85.35,4.23,0.345,0.000,7.215,7.215,7.467,20.678
1.361,86.04,4.22,0.350,0.000,7.331,7.331,7.646,20.715
1.366,86.16,4.20,0.351,0.000,7.351,7.351,7.723,20.754
1.371,85.93,4.17,0.349,0.000,7.313,7.313,7.717,20.793
1.376,86.23,4.14,0.351,0.000,7.364,7.364,7.760,20.831
1.381,86.93,4.15,0.355,0.000,7.482,7.482,7.872,20.870
1.386,87.75,4.15,0.360,0.000,7.620,7.620,7.999,20.910
1.391,88.53,4.15,0.365,0.000,7.753,7.753,8.128,20.950
1.396,89.54,4.13,0.372,0.000,7.923,7.923,8.301,20.991
1.401,91.02,4.14,0.381,0.000,8.174,8.174,8.549,21.033
1.406,92.60,4.17,0.391,0.000,8.440,8.440,8.812,21.077
1.411,94.51,4.19,0.402,0.000,8.763,8.763,9.192,21.122
1.416,95.84,4.17,0.411,0.000,8.987,8.987,9.496,21.169
1.421,97.03,4.17,0.418,0.000,9.190,9.190,9.745,21.217
1.426,97.76,4.16,0.423,0.000,9.313,9.313,9.935,21.266
1.431,97.80,4.17,0.423,0.000,9.320,9.320,9.992,21.316
1.436,97.31,4.16,0.420,0.000,9.236,9.236,9.926,21.366
1.441,96.34,4.12,0.414,0.000,9.073,9.073,9.723,21.415
1.446,95.11,4.10,0.406,0.000,8.866,8.866,9.453,21.463
1.451,93.84,4.09,0.398,0.000,8.650,8.650,9.133,21.509
1.456,92.70,4.09,0.391,0.000,8.457,8.457,8.817,21.554
1.461,92.20,4.10,0.388,0.000,8.372,8.372,8.569,21.597
1.466,91.97,4.12,0.387,0.000,8.334,8.334,8.411,21.640
1.471,92.16,4.17,0.388,0.000,8.366,8.366,8.341,21.682
1.476,92.24,4.22,0.388,0.000,8.379,8.379,8.272,21.723
1.481,93.74,4.26,0.398,0.000,8.632,8.632,8.406,21.765
1.486,95.38,4.30,0.408,0.000,8.910,8.910,8.697,21.808
1.491,96.12,4.32,0.413,0.000,9.036,9.036,8.894,21.852
1.496,96.50,4.35,0.415,0.000,9.099,9.099,8.996,21.896
1.501,96.63,4.40,0.416,0.000,9.121,9.121,9.085,21.942
1.506,96.84,4.46,0.417,0.000,9.158,9.158,9.156,21.987
1.511,96.57,4.51,0.415,0.000,9.112,9.112,9.175,22.033
1.516,96.46,4.57,0.415,0.000,9.094,9.094,9.156,22.079
1.521,96.73,4.59,0.416,0.000,9.138,9.138,9.168,22.125
1.526,97.97,4.60,0.424,0.000,9.349,9.349,9.374,22.171
1.531,99.58,4.63,0.434,0.000,9.621,9.621,9.656,22.218
1.536,101.25,4.66,0.444,0.000,9.903,9.903,9.971,22.267
1.541,102.67,4.69,0.453,0.000,10.143,10.143,10.289,22.318
1.546,103.79,4.74,0.460,0.000,10.332,10.332,10.555,22.370
1.551,104.59,4.78,0.465,0.000,10.468,10.468,10.763,22.424
1.556,105.39,4.79,0.470,0.000,10.604,10.604,10.939,22.478
1.561,106.59,4.84,0.478,0.000,10.805,10.805,11.179,22.533
1.566,107.70,4.87,0.485,0.000,10.994,10.994,11.415,22.590
1.571,107.92,4.87,0.486,0.000,11.031,11.031,11.479,22.647
1.576,108.70,4.89,0.491,0.000,11.162,11.162,11.571,22.704
1.581,109.54,4.93,0.496,0.000,11.305,11.305,11.737,22.763
1.586,110.05,4.97,0.499,0.000,11.391,11.391,11.822,22.822
1.591,110.86,4.99,0.504,0.000,11.528,11.528,11.949,22.881
1.596,111.31,4.98,0.507,0.000,11.604,11.604,12.002,22.941
1.601,112.43,4.96,0.514,0.000,11.794,11.794,12.150,23.001
1.606,113.58,4.92,0.521,0.000,11.988,11.988,12.351,23.063
1.611,114.69,4.86,0.528,0.000,12.175,12.175,12.537,23.125
1.616,115.54,4.81,0.533,0.000,12.319,12.319,12.707,23.188
1.621,116.43,4.77,0.539,0.000,12.470,12.470,12.856,23.252
1.626,117.45,4.72,0.545,0.000,12.642,12.642,13.005,23.316
1.631,118.51,4.66,0.552,0.000,12.821,12.821,13.189,23.382
1.636,119.45,4.60,0.558,0.000,12.980,12.980,13.368,23.448
1.641,119.66,4.58,0.559,0.000,13.015,13.015,13.413,23.515
1.646,119.02,4.57,0.555,0.000,12.907,12.907,13.336,23.582
1.651,118.23,4.54,0.550,0.000,12.773,12.773,13.140,23.648
1.656,117.56,4.53,0.546,0.000,12.661,12.661,12.983,23.714
1.661,116.93,4.56,0.542,0.000,12.553,12.553,12.777,23.778
1.666,116.19,4.58,0.537,0.000,12.428,12.428,12.597,23.841
1.671,115.25,4.61,0.531,0.000,12.269,12.269,12.371,23.904
1.676,114.04,4.68,0.524,0.000,12.065,12.065,12.108,23.965
1.681,113.32,4.75,0.519,0.000,11.943,11.943,11.889,24.025
1.686,113.21,4.79,0.519,0.000,11.924,11.924,11.759,24.084
1.691,113.68,4.83,0.522,0.000,12.004,12.004,11.804,24.143
1.696,113.61,4.84,0.521,0.000,11.993,11.993,11.783,24.202
1.701,113.44,4.86,0.520,0.000,11.963,11.963,11.767,24.261
1.706,112.95,4.89,0.517,0.000,11.880,11.880,11.670,24.320
1.711,112.74,4.92,0.516,0.000,11.845,11.845,11.599,24.378
1.716,113.57,4.96,0.521,0.000,11.985,11.985,11.720,24.436
1.721,115.00,4.98,0.530,0.000,12.228,12.228,11.978,24.495
1.726,115.74,5.02,0.535,0.000,12.352,12.352,12.151,24.556
1.731,117.26,5.04,0.544,0.000,12.609,12.609,12.430,24.617
1.736,118.40,5.07,0.551,0.000,12.802,12.802,12.727,24.680
1.741,118.55,5.11,0.552,0.000,12.828,12.828,12.835,24.744
1.746,119.18,5.16,0.556,0.000,12.934,12.934,12.961,24.808
1.751,119.62,5.19,0.559,0.000,13.008,13.008,13.098,24.874
1.756,120.15,5.19,0.562,0.000,13.098,13.098,13.188,24.939
1.761,120.60,5.17,0.565,0.000,13.173,13.173,13.284,25.005
1.766,120.54,5.15,0.564,0.000,13.164,13.164,13.304,25.072
1.771,119.99,5.11,0.561,0.000,13.072,13.072,13.236,25.138
1.776,119.01,5.07,0.555,0.000,12.906,12.906,13.036,25.204
1.781,118.88,5.00,0.554,0.000,12.884,12.884,12.931,25.269
1.786,119.23,4.96,0.556,0.000,12.942,12.942,12.953,25.334
1.791,119.76,4.92,0.560,0.000,13.032,13.032,13.022,25.398
1.796,120.86,4.88,0.566,0.000,13.218,13.218,13.152,25.464
1.801,122.30,4.88,0.575,0.000,13.462,13.462,13.434,25.530
1.806,123.93,4.90,0.586,0.000,13.737,13.737,13.742,25.598
1.811,124.64,4.91,0.590,0.000,13.858,13.858,13.946,25.668
1.816,124.71,4.92,0.590,0.000,13.869,13.869,14.007,25.737
1.821,124.30,4.94,0.588,0.000,13.799,13.799,13.977,25.807
1.826,123.64,4.94,0.584,0.000,13.688,13.688,13.853,25.877
1.831,122.98,4.92,0.580,0.000,13.576,13.576,13.716,25.946
1.836,122.72,4.89,0.578,0.000,13.532,13.532,13.609,26.014
1.841,122.63,4.88,0.577,0.000,13.517,13.517,13.533,26.082
1.846,122.82,4.84,0.579,0.000,13.550,13.550,13.554,26.150
1.851,122.97,4.81,0.580,0.000,13.575,13.575,13.549,26.218
1.856,123.31,4.78,0.582,0.000,13.632,13.632,13.577,26.285
1.861,124.27,4.75,0.588,0.000,13.794,13.794,13.724,26.354
1.866,124.53,4.74,0.589,0.000,13.839,13.839,13.816,26.422
1.871,124.91,4.71,0.592,0.000,13.903,13.903,13.889,26.492
1.876,124.57,4.69,0.590,0.000,13.846,13.846,13.875,26.561
1.881,124.37,4.68,0.588,0.000,13.812,13.812,13.804,26.630
1.886,124.38,4.68,0.588,0.000,13.814,13.814,13.813,26.699
1.891,124.27,4.68,0.588,0.000,13.794,13.794,13.767,26.768
1.896,124.00,4.68,0.586,0.000,13.749,13.749,13.739,26.837
1.901,123.37,4.68,0.582,0.000,13.642,13.642,13.621,26.906
1.906,122.90,4.68,0.579,0.000,13.563,13.563,13.511,26.973
1.911,122.38,4.69,0.576,0.000,13.475,13.475,13.392,27.041
1.916,121.41,4.70,0.570,0.000,13.310,13.310,13.228,27.107
1.921,120.71,4.72,0.566,0.000,13.193,13.193,13.057,27.173
1.926,119.98,4.77,0.561,0.000,13.069,13.069,12.900,27.238
1.931,119.29,4.79,0.557,0.000,12.953,12.953,12.747,27.302
1.936,119.10,4.76,0.555,0.000,12.921,12.921,12.679,27.366
1.941,118.71,4.73,0.553,0.000,12.855,12.855,12.561,27.429
1.946,118.51,4.70,0.552,0.000,12.821,12.821,12.551,27.491
1.951,118.48,4.69,0.552,0.000,12.815,12.815,12.523,27.554
1.956,119.83,4.73,0.560,0.000,13.044,13.044,12.718,27.617
1.961,121.40,4.75,0.570,0.000,13.309,13.309,13.018,27.681
1.966,122.35,4.81,0.576,0.000,13.471,13.471,13.257,27.747
1.971,122.86,4.85,0.579,0.000,13.556,13.556,13.409,27.814
1.976,124.40,4.84,0.588,0.000,13.817,13.817,13.671,27.881
1.981,126.54,4.82,0.602,0.000,14.178,14.178,14.106,27.951
1.986,128.35,4.83,0.613,0.000,14.484,14.484,14.521,28.023
1.991,129.26,4.85,0.619,0.000,14.638,14.638,14.738,28.096
1.996,130.46,4.87,0.626,0.000,14.841,14.841,15.021,28.170
2.001,131.35,4.88,0.632,0.000,14.991,14.991,15.208,28.246
2.006,132.32,4.91,0.638,0.000,15.155,15.155,15.406,28.322
2.011,132.80,4.94,0.641,0.000,15.237,15.237,15.529,28.400
2.016,133.71,4.94,0.646,0.000,15.390,15.390,15.660,28.478
2.021,135.51,4.91,0.658,0.000,15.694,15.694,15.939,28.556
2.026,137.65,4.90,0.671,0.000,16.057,16.057,16.319,28.637
2.031,139.24,4.88,0.681,0.000,16.326,16.326,16.657,28.720
2.036,140.41,4.85,0.688,0.000,16.523,16.523,16.882,28.803
2.041,140.90,4.85,0.691,0.000,16.607,16.607,17.014,28.888
2.046,141.83,4.87,0.697,0.000,16.764,16.764,17.106,28.973
2.051,144.16,4.88,0.711,0.000,17.156,17.156,17.470,29.060
2.056,145.45,4.93,0.719,0.000,17.376,17.376,17.757,29.148
2.061,145.86,4.97,0.722,0.000,17.445,17.445,17.847,29.237
2.066,146.38,4.98,0.725,0.000,17.533,17.533,17.935,29.326
2.071,146.74,4.98,0.727,0.000,17.593,17.593,17.955,29.416
2.076,146.77,4.96,0.728,0.000,17.599,17.599,17.969,29.506
2.081,146.03,4.92,0.723,0.000,17.473,17.473,17.802,29.596
2.086,145.52,4.88,0.720,0.000,17.388,17.388,17.681,29.684
2.091,145.22,4.85,0.718,0.000,17.336,17.336,17.562,29.772
2.096,145.03,4.83,0.717,0.000,17.304,17.304,17.492,29.860
2.101,144.11,4.80,0.711,0.000,17.149,17.149,17.309,29.947
2.106,143.30,4.77,0.706,0.000,17.012,17.012,17.100,30.033
2.111,142.82,4.75,0.703,0.000,16.930,16.930,16.980,30.118
2.116,141.47,4.77,0.695,0.000,16.702,16.702,16.734,30.202
2.121,139.85,4.82,0.685,0.000,16.428,16.428,16.386,30.285
2.126,139.23,4.86,0.681,0.000,16.323,16.323,16.174,30.367
2.131,138.97,4.90,0.679,0.000,16.280,16.280,16.104,30.447
2.136,138.71,4.91,0.678,0.000,16.237,16.237,16.014,30.528
2.141,138.90,4.91,0.679,0.000,16.268,16.268,16.048,30.608
2.146,138.56,4.88,0.677,0.000,16.210,16.210,16.003,30.688
2.151,138.13,4.86,0.674,0.000,16.137,16.137,15.935,30.768
2.156,136.98,4.86,0.667,0.000,15.944,15.944,15.755,30.847
2.161,135.89,4.86,0.660,0.000,15.759,15.759,15.523,30.925
2.166,135.18,4.88,0.656,0.000,15.639,15.639,15.389,31.002
2.171,133.87,4.93,0.647,0.000,15.418,15.418,15.153,31.079
2.176,133.00,4.95,0.642,0.000,15.271,15.271,14.979,31.154
2.181,131.84,4.98,0.635,0.000,15.074,15.074,14.750,31.228
2.186,130.73,4.99,0.628,0.000,14.887,14.887,14.531,31.302
2.191,130.34,4.97,0.625,0.000,14.821,14.821,14.441,31.374
2.196,129.76,4.94,0.622,0.000,14.722,14.722,14.321,31.446
2.201,128.72,4.90,0.615,0.000,14.546,14.546,14.170,31.517
2.206,127.77,4.90,0.609,0.000,14.386,14.386,13.995,31.588
2.211,126.57,4.92,0.602,0.000,14.183,14.183,13.794,31.657
2.216,125.24,4.92,0.594,0.000,13.958,13.958,13.564,31.726
2.221,123.65,4.91,0.584,0.000,13.691,13.691,13.258,31.793
2.226,122.53,4.91,0.577,0.000,13.500,13.500,13.010,31.858
2.231,122.57,4.89,0.577,0.000,13.507,13.507,12.988,31.923
2.236,121.80,4.88,0.572,0.000,13.377,13.377,12.884,31.988
2.241,120.78,4.84,0.566,0.000,13.205,13.205,12.724,32.052
2.246,119.44,4.81,0.558,0.000,12.978,12.978,12.493,32.115
2.251,118.54,4.79,0.552,0.000,12.826,12.826,12.335,32.177
2.256,117.69,4.78,0.547,0.000,12.682,12.682,12.159,32.238
2.261,117.45,4.76,0.545,0.000,12.642,12.642,12.077,32.299
2.266,117.99,4.72,0.549,0.000,12.733,12.733,12.183,32.359
2.271,117.84,4.70,0.548,0.000,12.708,12.708,12.218,32.420
2.276,118.22,4.71,0.550,0.000,12.772,12.772,12.292,32.482
2.281,119.20,4.75,0.556,0.000,12.937,12.937,12.481,32.544
2.286,120.13,4.76,0.562,0.000,13.095,13.095,12.711,32.607
2.291,121.80,4.76,0.572,0.000,13.377,13.377,13.036,32.671
2.296,123.82,4.73,0.585,0.000,13.718,13.718,13.476,32.737
2.301,124.96,4.67,0.592,0.000,13.911,13.911,13.798,32.805
2.306,125.47,4.61,0.595,0.000,13.997,13.997,13.992,32.875
2.311,125.89,4.55,0.598,0.000,14.068,14.068,14.140,32.945
2.316,126.64,4.49,0.602,0.000,14.195,14.195,14.277,33.016
2.321,126.95,4.47,0.604,0.000,14.247,14.247,14.398,33.088
2.326,126.68,4.45,0.603,0.000,14.201,14.201,14.358,33.160
2.331,127.81,4.43,0.610,0.000,14.392,14.392,14.503,33.232
2.336,128.82,4.38,0.616,0.000,14.564,14.564,14.711,33.305
2.341,130.25,4.31,0.625,0.000,14.806,14.806,14.941,33.379
2.346,131.92,4.25,0.635,0.000,15.087,15.087,15.226,33.454
2.351,133.90,4.22,0.648,0.000,15.422,15.422,15.618,33.532
2.356,135.15,4.21,0.655,0.000,15.634,15.634,15.907,33.610
2.361,135.54,4.24,0.658,0.000,15.700,15.700,16.023,33.690
2.366,135.92,4.25,0.660,0.000,15.765,15.765,16.111,33.771
2.371,135.91,4.27,0.660,0.000,15.762,15.762,16.113,33.851
2.376,135.73,4.29,0.659,0.000,15.732,15.732,16.075,33.932
2.381,135.73,4.30,0.659,0.000,15.731,15.731,16.018,34.012
2.386,135.35,4.31,0.657,0.000,15.667,15.667,15.935,34.092
2.391,135.36,4.33,0.657,0.000,15.670,15.670,15.882,34.171
2.396,135.07,4.34,0.655,0.000,15.621,15.621,15.811,34.250
2.401,134.81,4.36,0.653,0.000,15.577,15.577,15.712,34.329
2.406,136.03,4.37,0.661,0.000,15.782,15.782,15.847,34.408
2.411,137.15,4.38,0.668,0.000,15.972,15.972,16.034,34.488
2.416,138.13,4.41,0.674,0.000,16.138,16.138,16.207,34.568
2.421,139.33,4.43,0.681,0.000,16.340,16.340,16.436,34.650
2.426,139.52,4.43,0.682,0.000,16.372,16.372,16.530,34.732
2.431,139.04,4.41,0.680,0.000,16.292,16.292,16.458,34.815
2.436,139.00,4.40,0.679,0.000,16.285,16.285,16.421,34.897
2.441,139.66,4.41,0.683,0.000,16.396,16.396,16.480,34.979
2.446,140.89,4.45,0.691,0.000,16.604,16.604,16.681,35.062
2.451,142.51,4.48,0.701,0.000,16.879,16.879,16.942,35.146
2.456,143.76,4.48,0.709,0.000,17.090,17.090,17.218,35.232
2.461,145.83,4.50,0.722,0.000,17.439,17.439,17.561,35.318
2.466,147.03,4.53,0.729,0.000,17.643,17.643,17.850,35.407
2.471,148.49,4.55,0.738,0.000,17.890,17.890,18.079,35.497
2.476,150.07,4.53,0.748,0.000,18.157,18.157,18.412,35.588
2.481,150.49,4.50,0.751,0.000,18.227,18.227,18.550,35.681
2.486,150.08,4.48,0.748,0.000,18.158,18.158,18.476,35.773
2.491,151.37,4.46,0.756,0.000,18.376,18.376,18.604,35.866
2.496,153.58,4.48,0.770,0.000,18.750,18.750,18.967,35.960
2.501,155.63,4.54,0.783,0.000,19.097,19.097,19.338,36.055
2.506,156.55,4.58,0.788,0.000,19.251,19.251,19.566,36.153
2.511,157.37,4.61,0.794,0.000,19.391,19.391,19.720,36.251
2.516,157.38,4.63,0.794,0.000,19.393,19.393,19.756,36.350
2.521,156.73,4.65,0.790,0.000,19.282,19.282,19.638,36.448
2.526,155.83,4.65,0.784,0.000,19.131,19.131,19.437,36.546
2.531,155.39,4.65,0.781,0.000,19.055,19.055,19.310,36.643
2.536,154.91,4.62,0.778,0.000,18.974,18.974,19.172,36.739
2.541,154.16,4.57,0.774,0.000,18.848,18.848,19.002,36.834
2.546,152.97,4.54,0.766,0.000,18.646,18.646,18.767,36.929
2.551,151.60,4.52,0.758,0.000,18.416,18.416,18.512,37.022
2.556,149.82,4.48,0.747,0.000,18.115,18.115,18.138,37.114
2.561,148.75,4.48,0.740,0.000,17.933,17.933,17.860,37.204
2.566,148.84,4.50,0.740,0.000,17.948,17.948,17.803,37.293
2.571,148.88,4.52,0.741,0.000,17.955,17.955,17.799,37.382
2.576,148.44,4.54,0.738,0.000,17.881,17.881,17.713,37.471
2.581,148.35,4.57,0.737,0.000,17.865,17.865,17.687,37.559
2.586,148.71,4.60,0.740,0.000,17.927,17.927,17.717,37.647
2.591,149.13,4.61,0.742,0.000,17.998,17.998,17.792,37.736
2.596,150.89,4.61,0.753,0.000,18.295,18.295,18.070,37.826
2.601,152.79,4.63,0.765,0.000,18.617,18.617,18.461,37.917
2.606,153.46,4.65,0.769,0.000,18.730,18.730,18.679,38.010
2.611,153.52,4.67,0.770,0.000,18.739,18.739,18.738,38.104
2.616,153.56,4.67,0.770,0.000,18.746,18.746,18.782,38.198
2.621,152.77,4.68,0.765,0.000,18.613,18.613,18.665,38.291
2.626,151.40,4.67,0.756,0.000,18.381,18.381,18.456,38.384
2.631,150.38,4.65,0.750,0.000,18.209,18.209,18.214,38.476
2.636,149.84,4.63,0.747,0.000,18.118,18.118,18.087,38.566
2.641,149.38,4.61,0.744,0.000,18.040,18.040,17.955,38.657
2.646,149.85,4.62,0.747,0.000,18.119,18.119,17.986,38.746
2.651,150.25,4.66,0.749,0.000,18.186,18.186,18.069,38.836
2.656,149.53,4.70,0.745,0.000,18.065,18.065,18.011,38.927
2.661,148.31,4.72,0.737,0.000,17.859,17.859,17.800,39.016
2.666,146.67,4.73,0.727,0.000,17.582,17.582,17.513,39.105
2.671,144.72,4.73,0.715,0.000,17.252,17.252,17.158,39.191
2.676,142.66,4.72,0.702,0.000,16.903,16.903,16.753,39.276
2.681,140.96,4.68,0.691,0.000,16.617,16.617,16.392,39.359
2.686,138.83,4.65,0.678,0.000,16.255,16.255,15.996,39.440
2.691,137.35,4.65,0.669,0.000,16.006,16.006,15.642,39.519
2.696,136.34,4.65,0.663,0.000,15.835,15.835,15.404,39.597
2.701,135.46,4.63,0.657,0.000,15.687,15.687,15.255,39.673
2.706,134.07,4.62,0.649,0.000,15.452,15.452,15.006,39.749
2.711,134.01,4.61,0.648,0.000,15.441,15.441,14.944,39.824
2.716,134.43,4.65,0.651,0.000,15.512,15.512,15.012,39.898
2.721,134.19,4.68,0.649,0.000,15.472,15.472,15.020,39.974
2.726,134.47,4.72,0.651,0.000,15.519,15.519,15.048,40.049
2.731,135.51,4.72,0.658,0.000,15.695,15.695,15.268,40.124
2.736,136.36,4.70,0.663,0.000,15.839,15.839,15.473,40.201
2.741,137.18,4.69,0.668,0.000,15.978,15.978,15.688,40.279
2.746,137.90,4.74,0.672,0.000,16.100,16.100,15.891,40.358
2.751,138.08,4.79,0.674,0.000,16.130,16.130,15.996,40.438
2.756,137.82,4.85,0.672,0.000,16.085,16.085,16.006,40.518
2.761,137.56,4.88,0.670,0.000,16.041,16.041,15.975,40.598
2.766,137.20,4.88,0.668,0.000,15.980,15.980,15.930,40.678
2.771,136.84,4.85,0.666,0.000,15.920,15.920,15.877,40.757
2.776,136.21,4.82,0.662,0.000,15.813,15.813,15.775,40.836
2.781,134.99,4.78,0.654,0.000,15.606,15.606,15.580,40.915
2.786,134.57,4.74,0.652,0.000,15.536,15.536,15.410,40.992
2.791,135.09,4.70,0.655,0.000,15.624,15.624,15.475,41.069
2.796,135.68,4.68,0.659,0.000,15.724,15.724,15.577,41.147
2.801,137.16,4.66,0.668,0.000,15.973,15.973,15.822,41.225
2.806,138.69,4.67,0.677,0.000,16.232,16.232,16.117,41.305
2.811,140.03,4.65,0.686,0.000,16.458,16.458,16.424,41.386
2.816,140.88,4.67,0.691,0.000,16.603,16.603,16.626,41.469
2.821,141.57,4.75,0.695,0.000,16.719,16.719,16.807,41.553
2.826,141.24,4.83,0.693,0.000,16.664,16.664,16.806,41.637
2.831,140.74,4.88,0.690,0.000,16.579,16.579,16.740,41.721
2.836,139.82,4.92,0.684,0.000,16.423,16.423,16.575,41.804
2.841,139.23,4.95,0.681,0.000,16.324,16.324,16.419,41.886
2.846,138.77,4.95,0.678,0.000,16.246,16.246,16.308,41.968
2.851,138.44,4.96,0.676,0.000,16.189,16.189,16.235,42.050
2.856,137.66,5.01,0.671,0.000,16.058,16.058,16.079,42.130
2.861,137.45,5.03,0.670,0.000,16.022,16.022,16.011,42.211
2.866,137.27,5.03,0.669,0.000,15.993,15.993,15.923,42.290
2.871,138.17,5.05,0.674,0.000,16.145,16.145,16.061,42.370
2.876,138.00,5.04,0.673,0.000,16.115,16.115,16.081,42.451
2.881,137.41,5.01,0.669,0.000,16.016,16.016,15.996,42.531
2.886,137.32,4.98,0.669,0.000,16.001,16.001,15.933,42.611
2.891,137.26,4.96,0.668,0.000,15.990,15.990,15.921,42.690
2.896,137.95,4.91,0.673,0.000,16.107,16.107,16.022,42.770
2.901,138.10,4.86,0.674,0.000,16.133,16.133,16.077,42.850
2.906,137.72,4.82,0.671,0.000,16.068,16.068,16.050,42.931
2.911,138.49,4.79,0.676,0.000,16.198,16.198,16.102,43.011
2.916,139.53,4.76,0.683,0.000,16.374,16.374,16.322,43.092
2.921,139.93,4.71,0.685,0.000,16.443,16.443,16.439,43.174
2.926,140.30,4.67,0.687,0.000,16.505,16.505,16.537,43.257
2.931,140.75,4.68,0.690,0.000,16.581,16.581,16.615,43.339
2.936,140.80,4.70,0.691,0.000,16.590,16.590,16.675,43.423
2.941,140.20,4.73,0.687,0.000,16.488,16.488,16.596,43.506
2.946,139.11,4.76,0.680,0.000,16.304,16.304,16.414,43.588
2.951,138.54,4.83,0.676,0.000,16.207,16.207,16.258,43.670
2.956,138.26,4.91,0.675,0.000,16.160,16.160,16.165,43.751
2.961,139.33,4.96,0.681,0.000,16.341,16.341,16.283,43.832
2.966,139.54,5.00,0.683,0.000,16.376,16.376,16.375,43.914
2.971,139.41,5.03,0.682,0.000,16.355,16.355,16.336,43.996
2.976,139.57,5.02,0.683,0.000,16.382,16.382,16.373,44.077
2.981,139.17,4.99,0.680,0.000,16.314,16.314,16.344,44.159
2.986,138.47,4.97,0.676,0.000,16.196,16.196,16.222,44.241
2.991,138.04,4.93,0.673,0.000,16.122,16.122,16.107,44.321
2.996,138.43,4.90,0.676,0.000,16.189,16.189,16.134,44.402
3.001,139.03,4.85,0.679,0.000,16.289,16.289,16.242,44.483
3.006,138.11,4.83,0.674,0.000,16.134,16.134,16.161,44.564
3.011,135.57,4.83,0.658,0.000,15.705,15.705,15.772,44.644
3.016,131.84,4.83,0.635,0.000,15.074,15.074,15.125,44.721
3.021,127.26,4.84,0.606,0.000,14.300,14.329,14.290,44.795
3.026,122.09,4.86,0.574,0.000,13.426,13.579,13.399,44.864
3.031,116.51,4.88,0.539,0.000,12.483,12.829,12.483,44.929
3.036,110.71,4.90,0.503,0.000,11.502,12.079,11.565,44.989
3.041,104.83,4.91,0.467,0.000,10.508,11.329,10.639,45.044
3.046,98.92,4.94,0.430,0.000,9.510,10.579,9.677,45.095
3.051,93.08,4.96,0.394,0.000,8.521,9.829,8.746,45.141
3.056,87.40,5.01,0.358,0.000,7.562,9.079,7.815,45.183
3.061,81.88,5.05,0.324,0.000,6.628,8.329,6.853,45.219
3.066,76.54,5.11,0.291,0.000,5.726,7.579,5.905,45.251
3.071,71.42,5.17,0.259,0.000,4.860,6.829,4.954,45.278
3.076,66.53,5.23,0.228,0.000,4.034,6.079,4.072,45.301
3.081,61.88,5.27,0.199,0.000,3.247,5.329,3.075,45.319
3.086,57.53,5.33,0.172,0.000,2.511,4.579,2.118,45.332
3.091,53.49,5.40,0.147,0.000,1.829,3.829,1.354,45.340
3.096,49.69,5.43,0.124,0.000,1.185,3.079,0.612,45.345
3.101,46.12,5.44,0.101,0.000,0.582,2.329,0.000,45.346
3.106,42.78,5.42,0.081,0.000,0.017,1.579,0.000,45.346
3.111,39.65,5.40,0.061,0.000,0.000,0.829,0.000,45.346
3.116,36.76,5.36,0.043,0.000,0.000,0.079,0.000,45.346
3.121,34.07,5.30,0.026,0.000,0.000,0.000,0.000,45.346
3.126,31.63,5.27,0.011,0.000,0.000,0.000,0.000,45.346
3.131,29.34,5.26,0.000,0.000,0.000,0.000,0.000,45.346
3.136,27.26,5.27,0.000,0.000,0.000,0.000,0.000,45.346
3.141,25.35,5.25,0.000,0.000,0.000,0.000,0.000,45.346
3.146,23.59,5.25,0.000,0.000,0.000,0.000,0.000,45.346
3.151,21.98,5.25,0.000,0.000,0.000,0.000,0.000,45.346
3.156,20.52,5.27,0.000,0.000,0.000,0.000,0.000,45.346
3.161,19.18,5.26,0.000,0.000,0.000,0.000,0.000,45.346
3.166,18.00,5.24,0.000,0.000,0.000,0.000,0.000,45.346
3.171,16.90,5.22,0.000,0.000,0.000,0.000,0.000,45.346
3.176,15.93,5.22,0.000,0.000,0.000,0.000,0.000,45.346
3.181,15.01,5.23,0.000,0.000,0.000,0.000,0.000,45.346
3.186,14.15,5.21,0.000,0.000,0.000,0.000,0.000,45.346
3.191,13.39,5.15,0.000,0.000,0.000,0.000,0.000,45.346
3.196,12.70,5.12,0.000,0.000,0.000,0.000,0.000,45.346
3.201,12.06,5.09,0.000,0.000,0.000,0.000,0.000,45.346
3.206,11.53,5.06,0.000,0.000,0.000,0.000,0.000,45.346
3.211,11.08,5.01,0.000,0.000,0.000,0.000,0.000,45.346
3.216,10.69,4.98,0.000,0.000,0.000,0.000,0.000,45.346
3.221,10.38,4.96,0.000,0.000,0.000,0.000,0.000,45.346
3.226,10.07,4.93,0.000,0.000,0.000,0.000,0.000,45.346
3.231,9.74,4.92,0.000,0.000,0.000,0.000,0.000,45.346
3.236,9.43,4.90,0.000,0.000,0.000,0.000,0.000,45.346
3.241,9.15,4.90,0.000,0.000,0.000,0.000,0.000,45.346
3.246,8.90,4.93,0.000,0.000,0.000,0.000,0.000,45.346
3.251,8.64,4.93,0.000,0.000,0.000,0.000,0.000,45.346
3.256,8.39,4.91,0.000,0.000,0.000,0.000,0.000,45.346
3.261,8.18,4.89,0.000,0.000,0.000,0.000,0.000,45.346
3.266,8.03,4.84,0.000,0.000,0.000,0.000,0.000,45.346
3.271,7.91,4.80,0.000,0.000,0.000,0.000,0.000,45.346
3.276,7.79,4.80,0.000,0.000,0.000,0.000,0.000,45.346
3.281,7.64,4.81,0.000,0.000,0.000,0.000,0.000,45.346
3.286,7.50,4.85,0.000,0.000,0.000,0.000,0.000,45.346
3.291,7.36,4.90,0.000,0.000,0.000,0.000,0.000,45.346
3.296,7.22,4.91,0.000,0.000,0.000,0.000,0.000,45.346
3.301,7.08,4.91,0.000,0.000,0.000,0.000,0.000,45.346
3.306,6.98,4.97,0.000,0.000,0.000,0.000,0.000,45.346
3.311,6.89,5.04,0.000,0.000,0.000,0.000,0.000,45.346
3.316,6.76,5.08,0.000,0.000,0.000,0.000,0.000,45.346
3.321,6.66,5.09,0.000,0.000,0.000,0.000,0.000,45.346
3.326,6.57,5.10,0.000,0.000,0.000,0.000,0.000,45.346
3.331,6.46,5.14,0.000,0.000,0.000,0.000,0.000,45.346
3.336,6.36,5.18,0.000,0.000,0.000,0.000,0.000,45.346
3.341,6.29,5.20,0.000,0.000,0.000,0.000,0.000,45.346
3.346,6.22,5.22,0.000,0.000,0.000,0.000,0.000,45.346
3.351,6.13,5.27,0.000,0.000,0.000,0.000,0.000,45.346
3.356,6.00,5.30,0.000,0.000,0.000,0.000,0.000,45.346
3.361,5.87,5.31,0.000,0.000,0.000,0.000,0.000,45.346
3.366,5.73,5.30,0.000,0.000,0.000,0.000,0.000,45.346
3.371,5.61,5.29,0.000,0.000,0.000,0.000,0.000,45.346
3.376,5.51,5.26,0.000,0.000,0.000,0.000,0.000,45.346
3.381,5.40,5.24,0.000,0.000,0.000,0.000,0.000,45.346
3.386,5.32,5.25,0.000,0.000,0.000,0.000,0.000,45.346
3.391,5.29,5.25,0.000,0.000,0.000,0.000,0.000,45.346
3.396,5.28,5.27,0.000,0.000,0.000,0.000,0.000,45.346
3.401,5.27,5.26,0.000,0.000,0.000,0.000,0.000,45.346
3.406,5.25,5.23,0.000,0.000,0.000,0.000,0.000,45.346
3.411,5.25,5.19,0.000,0.000,0.000,0.000,0.000,45.346
3.416,5.21,5.20,0.000,0.000,0.000,0.000,0.000,45.346
3.421,5.18,5.18,0.000,0.000,0.000,0.000,0.000,45.346
3.426,5.17,5.14,0.000,0.000,0.000,0.000,0.000,45.346
3.431,5.19,5.08,0.000,0.000,0.000,0.000,0.000,45.346
3.436,5.24,5.06,0.000,0.000,0.000,0.000,0.000,45.346
3.441,5.29,5.05,0.000,0.000,0.000,0.000,0.000,45.346
3.446,5.31,5.06,0.000,0.000,0.000,0.000,0.000,45.346
3.451,5.30,5.04,0.000,0.000,0.000,0.000,0.000,45.346
3.456,5.29,5.02,0.000,0.000,0.000,0.000,0.000,45.346
3.461,5.27,4.99,0.000,0.000,0.000,0.000,0.000,45.346
3.466,5.26,4.97,0.000,0.000,0.000,0.000,0.000,45.346
3.471,5.22,4.99,0.000,0.000,0.000,0.000,0.000,45.346
3.476,5.14,5.03,0.000,0.000,0.000,0.000,0.000,45.346
3.481,5.05,5.05,0.000,0.000,0.000,0.000,0.000,45.346
3.486,5.01,5.06,0.000,0.000,0.000,0.000,0.000,45.346
3.491,4.98,5.05,0.000,0.000,0.000,0.000,0.000,45.346
3.496,4.97,5.02,0.000,0.000,0.000,0.000,0.000,45.346
3.501,4.93,5.02,0.000,0.000,0.000,0.000,0.000,45.346
3.506,4.91,5.03,0.000,0.000,0.000,0.000,0.000,45.346
3.511,4.89,5.03,0.000,0.000,0.000,0.000,0.000,45.346
3.516,4.88,5.01,0.000,0.000,0.000,0.000,0.000,45.346
3.521,4.86,4.97,0.000,0.000,0.000,0.000,0.000,45.346
3.526,4.83,4.93,0.000,0.000,0.000,0.000,0.000,45.346
3.531,4.79,4.89,0.000,0.000,0.000,0.000,0.000,45.346
3.536,4.76,4.86,0.000,0.000,0.000,0.000,0.000,45.346
3.541,4.73,4.84,0.000,0.000,0.000,0.000,0.000,45.346
3.546,4.74,4.80,0.000,0.000,0.000,0.000,0.000,45.346
3.551,4.77,4.78,0.000,0.000,0.000,0.000,0.000,45.346
3.556,4.80,4.75,0.000,0.000,0.000,0.000,0.000,45.346
3.561,4.85,4.75,0.000,0.000,0.000,0.000,0.000,45.346
3.566,4.91,4.76,0.000,0.000,0.000,0.000,0.000,45.346
3.571,4.96,4.76,0.000,0.000,0.000,0.000,0.000,45.346
3.576,5.01,4.77,0.000,0.000,0.000,0.000,0.000,45.346
3.581,5.07,4.80,0.000,0.000,0.000,0.000,0.000,45.346
3.586,5.10,4.85,0.000,0.000,0.000,0.000,0.000,45.346
3.591,5.10,4.90,0.000,0.000,0.000,0.000,0.000,45.346
3.596,5.10,4.91,0.000,0.000,0.000,0.000,0.000,45.346
3.601,5.14,4.92,0.000,0.000,0.000,0.000,0.000,45.346
3.606,5.22,4.91,0.000,0.000,0.000,0.000,0.000,45.346
3.611,5.29,4.87,0.000,0.000,0.000,0.000,0.000,45.346
3.616,5.34,4.82,0.000,0.000,0.000,0.000,0.000,45.346
3.621,5.36,4.83,0.000,0.000,0.000,0.000,0.000,45.346
3.626,5.35,4.81,0.000,0.000,0.000,0.000,0.000,45.346
3.631,5.36,4.78,0.000,0.000,0.000,0.000,0.000,45.346
3.636,5.36,4.76,0.000,0.000,0.000,0.000,0.000,45.346
3.641,5.35,4.75,0.000,0.000,0.000,0.000,0.000,45.346
3.646,5.35,4.78,0.000,0.000,0.000,0.000,0.000,45.346
3.651,5.33,4.80,0.000,0.000,0.000,0.000,0.000,45.346
3.656,5.32,4.79,0.000,0.000,0.000,0.000,0.000,45.346
3.661,5.28,4.78,0.000,0.000,0.000,0.000,0.000,45.346
3.666,5.19,4.75,0.000,0.000,0.000,0.000,0.000,45.346
3.671,5.15,4.72,0.000,0.000,0.000,0.000,0.000,45.346
3.676,5.12,4.69,0.000,0.000,0.000,0.000,0.000,45.346
3.681,5.08,4.66,0.000,0.000,0.000,0.000,0.000,45.346
3.686,5.06,4.61,0.000,0.000,0.000,0.000,0.000,45.346
3.691,5.07,4.56,0.000,0.000,0.000,0.000,0.000,45.346
3.696,5.08,4.53,0.000,0.000,0.000,0.000,0.000,45.346
3.701,5.07,4.53,0.000,0.000,0.000,0.000,0.000,45.346
3.706,5.07,4.53,0.000,0.000,0.000,0.000,0.000,45.346
3.711,5.09,4.55,0.000,0.000,0.000,0.000,0.000,45.346
3.716,5.11,4.59,0.000,0.000,0.000,0.000,0.000,45.346
3.721,5.11,4.63,0.000,0.000,0.000,0.000,0.000,45.346
3.726,5.11,4.63,0.000,0.000,0.000,0.000,0.000,45.346
3.731,5.09,4.62,0.000,0.000,0.000,0.000,0.000,45.346
3.736,5.06,4.60,0.000,0.000,0.000,0.000,0.000,45.346
3.741,5.06,4.55,0.000,0.000,0.000,0.000,0.000,45.346
3.746,5.04,4.50,0.000,0.000,0.000,0.000,0.000,45.346
3.751,5.07,4.47,0.000,0.000,0.000,0.000,0.000,45.346
3.756,5.11,4.42,0.000,0.000,0.000,0.000,0.000,45.346
3.761,5.14,4.42,0.000,0.000,0.000,0.000,0.000,45.346
3.766,5.18,4.43,0.000,0.000,0.000,0.000,0.000,45.346
3.771,5.23,4.47,0.000,0.000,0.000,0.000,0.000,45.346
3.776,5.30,4.51,0.000,0.000,0.000,0.000,0.000,45.346
3.781,5.31,4.58,0.000,0.000,0.000,0.000,0.000,45.346
3.786,5.30,4.67,0.000,0.000,0.000,0.000,0.000,45.346
3.791,5.27,4.77,0.000,0.000,0.000,0.000,0.000,45.346
3.796,5.30,4.82,0.000,0.000,0.000,0.000,0.000,45.346
3.801,5.35,4.84,0.000,0.000,0.000,0.000,0.000,45.346
3.806,5.37,4.84,0.000,0.000,0.000,0.000,0.000,45.346
3.811,5.39,4.83,0.000,0.000,0.000,0.000,0.000,45.346
3.816,5.41,4.79,0.000,0.000,0.000,0.000,0.000,45.346
3.821,5.41,4.76,0.000,0.000,0.000,0.000,0.000,45.346
3.826,5.39,4.73,0.000,0.000,0.000,0.000,0.000,45.346
3.831,5.36,4.70,0.000,0.000,0.000,0.000,0.000,45.346
3.836,5.35,4.66,0.000,0.000,0.000,0.000,0.000,45.346
3.841,5.33,4.67,0.000,0.000,0.000,0.000,0.000,45.346
3.846,5.32,4.68,0.000,0.000,0.000,0.000,0.000,45.346
3.851,5.32,4.72,0.000,0.000,0.000,0.000,0.000,45.346
3.856,5.30,4.77,0.000,0.000,0.000,0.000,0.000,45.346
3.861,5.26,4.81,0.000,0.000,0.000,0.000,0.000,45.346
3.866,5.22,4.89,0.000,0.000,0.000,0.000,0.000,45.346
3.871,5.17,4.96,0.000,0.000,0.000,0.000,0.000,45.346
3.876,5.11,5.01,0.000,0.000,0.000,0.000,0.000,45.346
3.881,5.03,5.03,0.000,0.000,0.000,0.000,0.000,45.346
3.886,4.95,5.05,0.000,0.000,0.000,0.000,0.000,45.346
3.891,4.88,5.03,0.000,0.000,0.000,0.000,0.000,45.346
3.896,4.82,5.01,0.000,0.000,0.000,0.000,0.000,45.346
3.901,4.77,5.02,0.000,0.000,0.000,0.000,0.000,45.346
3.906,4.72,5.04,0.000,0.000,0.000,0.000,0.000,45.346
3.911,4.67,5.08,0.000,0.000,0.000,0.000,0.000,45.346
3.916,4.62,5.10,0.000,0.000,0.000,0.000,0.000,45.346
3.921,4.59,5.10,0.000,0.000,0.000,0.000,0.000,45.346
3.926,4.59,5.12,0.000,0.000,0.000,0.000,0.000,45.346
3.931,4.60,5.14,0.000,0.000,0.000,0.000,0.000,45.346
3.936,4.63,5.13,0.000,0.000,0.000,0.000,0.000,45.346
3.941,4.67,5.14,0.000,0.000,0.000,0.000,0.000,45.346
3.946,4.69,5.16,0.000,0.000,0.000,0.000,0.000,45.346
3.951,4.71,5.18,0.000,0.000,0.000,0.000,0.000,45.346
3.956,4.72,5.19,0.000,0.000,0.000,0.000,0.000,45.346
3.961,4.76,5.21,0.000,0.000,0.000,0.000,0.000,45.346
3.966,4.78,5.23,0.000,0.000,0.000,0.000,0.000,45.346
3.971,4.78,5.29,0.000,0.000,0.000,0.000,0.000,45.346
3.976,4.81,5.38,0.000,0.000,0.000,0.000,0.000,45.346
3.981,4.84,5.42,0.000,0.000,0.000,0.000,0.000,45.346
3.986,4.86,5.41,0.000,0.000,0.000,0.000,0.000,45.346
3.991,4.86,5.40,0.000,0.000,0.000,0.000,0.000,45.346
3.996,4.88,5.41,0.000,0.000,0.000,0.000,0.000,45.346
4.001,4.96,5.46,0.000,0.000,0.000,0.000,0.000,45.346
4.006,7.22,6.84,0.000,0.000,0.000,0.000,0.000,45.346
4.011,10.64,9.93,0.000,0.000,0.000,0.000,0.000,45.346
4.016,14.89,15.46,0.000,0.000,0.000,0.000,0.000,45.346
4.021,19.75,21.77,0.000,0.000,0.000,0.000,0.000,45.346
4.026,25.88,28.22,0.000,0.000,0.000,0.000,0.000,45.346
4.031,34.29,35.17,0.028,0.028,0.000,0.000,0.000,45.346
4.036,42.94,42.35,0.082,0.072,0.000,0.000,0.000,45.346
4.041,51.34,51.02,0.134,0.125,0.000,0.000,0.000,45.346
4.046,60.01,59.57,0.188,0.176,0.000,0.000,0.000,45.346
4.051,69.18,68.94,0.245,0.233,0.000,0.000,0.000,45.346
4.056,78.77,79.18,0.305,0.295,0.000,0.000,0.000,45.346
4.061,87.01,88.45,0.356,0.351,0.000,0.000,0.000,45.346
4.066,94.94,96.30,0.405,0.399,0.000,0.000,0.000,45.346
4.071,103.24,103.87,0.457,0.445,0.000,0.000,0.000,45.346
4.076,110.00,111.42,0.499,0.491,0.000,0.000,0.000,45.346
4.081,115.11,118.74,0.531,0.535,0.000,0.000,0.000,45.346
4.086,119.70,124.62,0.559,0.571,0.000,0.000,0.000,45.346
4.091,124.30,130.42,0.588,0.606,0.000,0.000,0.000,45.346
4.096,128.03,135.80,0.611,0.639,0.000,0.000,0.000,45.346
4.101,131.41,139.53,0.632,0.661,0.000,0.000,0.000,45.346
4.106,134.27,143.30,0.650,0.684,0.000,0.000,0.000,45.346
4.111,137.04,146.18,0.667,0.701,0.000,0.000,0.000,45.346
4.116,139.33,149.24,0.681,0.720,0.000,0.000,0.000,45.346
4.121,140.83,151.57,0.691,0.734,0.000,0.000,0.000,45.346
4.126,142.20,153.59,0.699,0.746,0.000,0.000,0.000,45.346
4.131,143.78,155.34,0.709,0.757,0.000,0.000,0.000,45.346
4.136,145.79,156.82,0.722,0.766,0.000,0.000,0.000,45.346
4.141,147.92,158.09,0.735,0.774,0.000,0.000,0.000,45.346
4.146,149.75,158.95,0.746,0.779,0.000,0.000,0.000,45.346
4.151,152.11,160.96,0.761,0.791,0.000,0.000,0.000,45.346
4.156,155.39,162.55,0.781,0.801,0.000,0.000,0.000,45.346
4.161,157.99,163.05,0.797,0.804,0.000,0.000,0.000,45.346
4.166,160.02,162.88,0.810,0.803,0.000,0.000,0.000,45.346
4.171,160.89,162.56,0.815,0.801,0.000,0.000,0.000,45.346
4.176,162.37,161.80,0.825,0.796,0.000,0.000,0.000,45.346
4.181,163.22,160.59,0.830,0.789,0.000,0.000,0.000,45.346
4.186,163.44,159.74,0.831,0.784,0.000,0.000,0.000,45.346
4.191,163.64,159.16,0.833,0.780,0.000,0.000,0.000,45.346
4.196,162.72,159.51,0.827,0.782,0.000,0.000,0.000,45.346
4.201,161.78,160.18,0.821,0.786,0.000,0.000,0.000,45.346
4.206,161.99,162.28,0.822,0.799,0.000,0.000,0.000,45.346
4.211,163.25,163.91,0.830,0.809,0.000,0.000,0.000,45.346
4.216,164.41,164.82,0.837,0.815,0.000,0.000,0.000,45.346
4.221,164.41,165.00,0.837,0.816,0.000,0.000,0.000,45.346
4.226,164.99,164.65,0.841,0.813,0.000,0.000,0.000,45.346
4.231,164.52,165.38,0.838,0.818,0.000,0.000,0.000,45.346
4.236,164.22,166.18,0.836,0.823,0.000,0.000,0.000,45.346
4.241,164.92,167.83,0.841,0.833,0.000,0.000,0.000,45.346
4.246,165.82,171.32,0.846,0.854,0.000,0.000,0.000,45.346
4.251,167.52,174.61,0.857,0.874,0.000,0.000,0.000,45.346
4.256,169.55,176.34,0.869,0.884,0.000,0.000,0.000,45.346
4.261,170.40,177.99,0.875,0.894,0.000,0.000,0.000,45.346
4.266,170.91,180.04,0.878,0.907,0.000,0.000,0.000,45.346
4.271,171.19,181.05,0.880,0.913,0.000,0.000,0.000,45.346
4.276,171.15,181.60,0.879,0.916,0.000,0.000,0.000,45.346
4.281,170.91,180.76,0.878,0.911,0.000,0.000,0.000,45.346
4.286,170.15,180.03,0.873,0.907,0.000,0.000,0.000,45.346
4.291,169.01,179.13,0.866,0.901,0.000,0.000,0.000,45.346
4.296,167.56,176.85,0.857,0.887,0.000,0.000,0.000,45.346
4.301,166.99,174.54,0.853,0.873,0.000,0.000,0.000,45.346
4.306,166.37,173.05,0.850,0.864,0.000,0.000,0.000,45.346
4.311,166.06,171.47,0.848,0.855,0.000,0.000,0.000,45.346
4.316,166.23,169.89,0.849,0.845,0.000,0.000,0.000,45.346
4.321,165.96,168.03,0.847,0.834,0.000,0.000,0.000,45.346
4.326,165.19,166.46,0.842,0.824,0.000,0.000,0.000,45.346
4.331,163.71,165.82,0.833,0.821,0.000,0.000,0.000,45.346
4.336,162.92,166.64,0.828,0.826,0.000,0.000,0.000,45.346
4.341,162.93,167.69,0.828,0.832,0.000,0.000,0.000,45.346
4.346,162.35,168.42,0.825,0.836,0.000,0.000,0.000,45.346
4.351,161.84,168.68,0.821,0.838,0.000,0.000,0.000,45.346
4.356,162.42,169.78,0.825,0.845,0.000,0.000,0.000,45.346
4.361,163.42,172.07,0.831,0.858,0.000,0.000,0.000,45.346
4.366,164.32,173.71,0.837,0.868,0.000,0.000,0.000,45.346
4.371,164.13,175.74,0.836,0.881,0.000,0.000,0.000,45.346
4.376,163.78,178.67,0.833,0.899,0.000,0.000,0.000,45.346
4.381,163.20,181.53,0.830,0.916,0.000,0.000,0.000,45.346
4.386,162.40,184.48,0.825,0.934,0.000,0.000,0.000,45.346
4.391,161.38,187.13,0.819,0.950,0.000,0.000,0.000,45.346
4.396,161.10,189.02,0.817,0.961,0.000,0.000,0.000,45.346
4.401,160.85,190.14,0.815,0.968,0.000,0.000,0.000,45.346
4.406,160.26,189.97,0.812,0.967,0.000,0.000,0.000,45.346
4.411,159.42,190.08,0.806,0.968,0.000,0.000,0.000,45.346
4.416,158.53,189.83,0.801,0.966,0.000,0.000,0.000,45.346
4.421,158.90,188.61,0.803,0.959,0.000,0.000,0.000,45.346
4.426,159.47,186.83,0.807,0.948,0.000,0.000,0.000,45.346
4.431,159.64,185.89,0.808,0.942,0.000,0.000,0.000,45.346
4.436,159.78,184.89,0.809,0.936,0.000,0.000,0.000,45.346
4.441,159.87,185.00,0.809,0.937,0.000,0.000,0.000,45.346
4.446,158.86,184.55,0.803,0.934,0.000,0.000,0.000,45.346
4.451,156.90,183.95,0.791,0.931,0.000,0.000,0.000,45.346
4.456,154.11,183.15,0.773,0.926,0.000,0.000,0.000,45.346
4.461,151.41,182.07,0.757,0.919,0.000,0.000,0.000,45.346
4.466,149.16,182.71,0.742,0.923,0.000,0.000,0.000,45.346
4.471,147.68,182.85,0.733,0.924,0.000,0.000,0.000,45.346
4.476,145.87,183.66,0.722,0.929,0.000,0.000,0.000,45.346
4.481,144.73,184.03,0.715,0.931,0.000,0.000,0.000,45.346
4.486,144.97,183.06,0.716,0.925,0.000,0.000,0.000,45.346
4.491,145.83,182.73,0.722,0.923,0.000,0.000,0.000,45.346
4.496,147.10,182.20,0.730,0.920,0.000,0.000,0.000,45.346
4.501,148.05,180.91,0.736,0.912,0.000,0.000,0.000,45.346
4.506,148.10,178.88,0.736,0.900,0.000,0.000,0.000,45.346
4.511,148.34,177.78,0.737,0.893,0.000,0.000,0.000,45.346
4.516,149.87,176.98,0.747,0.888,0.000,0.000,0.000,45.346
4.521,151.90,175.49,0.760,0.879,0.000,0.000,0.000,45.346
4.526,153.20,174.04,0.768,0.870,0.000,0.000,0.000,45.346
4.531,154.62,172.98,0.776,0.864,0.000,0.000,0.000,45.346
4.536,157.00,172.51,0.791,0.861,0.000,0.000,0.000,45.346
4.541,159.15,173.48,0.805,0.867,0.000,0.000,0.000,45.346
4.546,160.00,174.45,0.810,0.873,0.000,0.000,0.000,45.346
4.551,161.81,174.61,0.821,0.874,0.000,0.000,0.000,45.346
4.556,163.50,174.68,0.832,0.874,0.000,0.000,0.000,45.346
4.561,165.14,175.27,0.842,0.878,0.000,0.000,0.000,45.346
4.566,166.72,176.42,0.852,0.885,0.000,0.000,0.000,45.346
4.571,167.52,177.46,0.857,0.891,0.000,0.000,0.000,45.346
4.576,169.21,178.03,0.867,0.895,0.000,0.000,0.000,45.346
4.581,173.11,177.93,0.891,0.894,0.000,0.000,0.000,45.346
4.586,176.15,177.38,0.910,0.891,0.000,0.000,0.000,45.346
4.591,178.23,178.09,0.923,0.895,0.000,0.000,0.000,45.346
4.596,180.81,179.95,0.939,0.906,0.000,0.000,0.000,45.346
4.601,182.19,182.30,0.948,0.921,0.000,0.000,0.000,45.346
4.606,183.38,184.15,0.955,0.932,0.000,0.000,0.000,45.346
4.611,183.48,185.54,0.956,0.940,0.000,0.000,0.000,45.346
4.616,182.87,186.02,0.952,0.943,0.000,0.000,0.000,45.346
4.621,181.87,184.99,0.946,0.937,0.000,0.000,0.000,45.346
4.626,182.06,183.77,0.947,0.929,0.000,0.000,0.000,45.346
4.631,182.41,182.84,0.949,0.924,0.000,0.000,0.000,45.346
4.636,182.54,182.49,0.950,0.922,0.000,0.000,0.000,45.346
4.641,183.42,182.31,0.956,0.921,0.000,0.000,0.000,45.346
4.646,185.02,182.33,0.966,0.921,0.000,0.000,0.000,45.346
4.651,185.61,181.36,0.969,0.915,0.000,0.000,0.000,45.346
4.656,185.74,179.92,0.970,0.906,0.000,0.000,0.000,45.346
4.661,186.25,178.41,0.973,0.897,0.000,0.000,0.000,45.346
4.666,186.39,177.14,0.974,0.889,0.000,0.000,0.000,45.346
4.671,187.39,176.36,0.980,0.884,0.000,0.000,0.000,45.346
4.676,188.05,175.83,0.984,0.881,0.000,0.000,0.000,45.346
4.681,188.49,176.30,0.987,0.884,0.000,0.000,0.000,45.346
4.686,188.26,176.78,0.986,0.887,0.000,0.000,0.000,45.346
4.691,187.16,176.19,0.979,0.883,0.000,0.000,0.000,45.346
4.696,187.47,175.49,0.981,0.879,0.000,0.000,0.000,45.346
4.701,187.01,174.77,0.978,0.875,0.000,0.000,0.000,45.346
4.706,186.75,175.05,0.976,0.877,0.000,0.000,0.000,45.346
4.711,187.05,175.54,0.978,0.879,0.000,0.000,0.000,45.346
4.716,188.17,176.23,0.985,0.884,0.000,0.000,0.000,45.346
4.721,188.47,176.67,0.987,0.886,0.000,0.000,0.000,45.346
4.726,188.24,176.91,0.986,0.888,0.000,0.000,0.000,45.346
4.731,189.05,176.37,0.991,0.885,0.000,0.000,0.000,45.346
4.736,188.48,175.43,0.987,0.879,0.000,0.000,0.000,45.346
4.741,187.61,174.79,0.982,0.875,0.000,0.000,0.000,45.346
4.746,186.20,173.79,0.973,0.869,0.000,0.000,0.000,45.346
4.751,185.54,171.90,0.969,0.857,0.000,0.000,0.000,45.346
4.756,183.89,170.88,0.959,0.851,0.000,0.000,0.000,45.346
4.761,182.55,170.33,0.950,0.848,0.000,0.000,0.000,45.346
4.766,180.14,170.29,0.935,0.848,0.000,0.000,0.000,45.346
4.771,178.72,171.77,0.926,0.857,0.000,0.000,0.000,45.346
4.776,176.95,173.85,0.915,0.869,0.000,0.000,0.000,45.346
4.781,175.54,176.31,0.907,0.884,0.000,0.000,0.000,45.346
4.786,173.75,178.83,0.895,0.899,0.000,0.000,0.000,45.346
4.791,171.73,181.26,0.883,0.914,0.000,0.000,0.000,45.346
4.796,170.06,182.82,0.872,0.924,0.000,0.000,0.000,45.346
4.801,168.41,182.96,0.862,0.924,0.000,0.000,0.000,45.346
4.806,167.07,182.85,0.854,0.924,0.000,0.000,0.000,45.346
4.811,165.15,182.96,0.842,0.924,0.000,0.000,0.000,45.346
4.816,163.16,183.14,0.830,0.926,0.000,0.000,0.000,45.346
4.821,162.42,183.08,0.825,0.925,0.000,0.000,0.000,45.346
4.826,162.34,183.57,0.825,0.928,0.000,0.000,0.000,45.346
4.831,161.42,185.55,0.819,0.940,0.000,0.000,0.000,45.346
4.836,160.98,187.06,0.816,0.949,0.000,0.000,0.000,45.346
4.841,160.64,187.01,0.814,0.949,0.000,0.000,0.000,45.346
4.846,160.46,186.28,0.813,0.945,0.000,0.000,0.000,45.346
4.851,160.51,185.51,0.813,0.940,0.000,0.000,0.000,45.346
4.856,161.28,185.16,0.818,0.938,0.000,0.000,0.000,45.346
4.861,162.88,184.90,0.828,0.936,0.000,0.000,0.000,45.346
4.866,165.14,185.24,0.842,0.938,0.000,0.000,0.000,45.346
4.871,166.54,186.22,0.851,0.944,0.000,0.000,0.000,45.346
4.876,167.54,187.01,0.857,0.949,0.000,0.000,0.000,45.346
4.881,167.59,187.00,0.857,0.949,0.000,0.000,0.000,45.346
4.886,168.70,186.39,0.864,0.945,0.000,0.000,0.000,45.346
4.891,170.62,186.61,0.876,0.947,0.000,0.000,0.000,45.346
4.896,173.16,186.63,0.892,0.947,0.000,0.000,0.000,45.346
4.901,176.21,186.81,0.911,0.948,0.000,0.000,0.000,45.346
4.906,178.82,186.74,0.927,0.947,0.000,0.000,0.000,45.346
4.911,180.67,187.15,0.939,0.950,0.000,0.000,0.000,45.346
4.916,181.37,187.65,0.943,0.953,0.000,0.000,0.000,45.346
4.921,180.96,188.81,0.940,0.960,0.000,0.000,0.000,45.346
4.926,180.48,189.46,0.937,0.964,0.000,0.000,0.000,45.346
4.931,179.21,189.31,0.929,0.963,0.000,0.000,0.000,45.346
4.936,177.68,188.11,0.920,0.956,0.000,0.000,0.000,45.346
4.941,177.12,186.29,0.916,0.945,0.000,0.000,0.000,45.346
4.946,175.72,184.55,0.908,0.934,0.000,0.000,0.000,45.346
4.951,175.41,183.05,0.906,0.925,0.000,0.000,0.000,45.346
4.956,174.54,182.21,0.900,0.920,0.000,0.000,0.000,45.346
4.961,173.57,181.46,0.894,0.915,0.000,0.000,0.000,45.346
4.966,172.56,180.68,0.888,0.911,0.000,0.000,0.000,45.346
4.971,171.21,179.73,0.880,0.905,0.000,0.000,0.000,45.346
4.976,170.22,178.17,0.874,0.895,0.000,0.000,0.000,45.346
4.981,169.07,177.57,0.866,0.892,0.000,0.000,0.000,45.346
4.986,167.78,176.55,0.858,0.886,0.000,0.000,0.000,45.346
4.991,166.78,175.63,0.852,0.880,0.000,0.000,0.000,45.346
4.996,165.57,174.56,0.845,0.874,0.000,0.000,0.000,45.346
5.001,165.55,173.77,0.844,0.869,0.000,0.000,0.000,45.346
5.006,164.41,171.09,0.837,0.853,0.000,0.000,0.000,45.346
5.011,161.32,166.69,0.818,0.826,0.000,0.000,0.000,45.346
5.016,156.75,161.05,0.790,0.792,0.000,0.000,0.000,45.346
5.021,151.11,154.54,0.755,0.752,0.000,0.000,0.000,45.346
5.026,144.71,147.47,0.715,0.709,0.000,0.000,0.000,45.346
5.031,137.80,140.02,0.672,0.664,0.000,0.000,0.000,45.346
5.036,130.59,132.36,0.627,0.618,0.000,0.000,0.000,45.346
5.041,123.26,124.64,0.581,0.571,0.000,0.000,0.000,45.346
5.046,115.89,116.96,0.536,0.524,0.000,0.000,0.000,45.346
5.051,108.61,109.47,0.490,0.479,0.000,0.000,0.000,45.346
5.056,101.54,102.24,0.446,0.435,0.000,0.000,0.000,45.346
5.061,94.68,95.25,0.404,0.393,0.000,0.000,0.000,45.346
5.066,88.07,88.57,0.362,0.352,0.000,0.000,0.000,45.346
5.071,81.75,82.24,0.323,0.314,0.000,0.000,0.000,45.346
5.076,75.74,76.25,0.286,0.277,0.000,0.000,0.000,45.346
5.081,70.07,70.59,0.250,0.243,0.000,0.000,0.000,45.346
5.086,64.76,65.30,0.217,0.211,0.000,0.000,0.000,45.346
5.091,59.81,60.35,0.187,0.181,0.000,0.000,0.000,45.346
5.096,55.19,55.78,0.158,0.153,0.000,0.000,0.000,45.346
5.101,50.88,51.58,0.131,0.128,0.000,0.000,0.000,45.346
5.106,46.89,47.67,0.106,0.104,0.000,0.000,0.000,45.346
5.111,43.21,44.03,0.083,0.082,0.000,0.000,0.000,45.346
5.116,39.80,40.68,0.062,0.062,0.000,0.000,0.000,45.346
5.121,36.67,37.61,0.043,0.043,0.000,0.000,0.000,45.346
5.126,33.78,34.76,0.025,0.026,0.000,0.000,0.000,45.346
5.131,31.12,32.12,0.008,0.010,0.000,0.000,0.000,45.346
5.136,28.67,29.71,0.000,0.000,0.000,0.000,0.000,45.346
5.141,26.43,27.50,0.000,0.000,0.000,0.000,0.000,45.346
5.146,24.41,25.49,0.000,0.000,0.000,0.000,0.000,45.346
5.151,22.59,23.63,0.000,0.000,0.000,0.000,0.000,45.346
5.156,20.94,21.95,0.000,0.000,0.000,0.000,0.000,45.346
5.161,19.43,20.41,0.000,0.000,0.000,0.000,0.000,45.346
5.166,18.03,19.02,0.000,0.000,0.000,0.000,0.000,45.346
5.171,16.76,17.74,0.000,0.000,0.000,0.000,0.000,45.346
5.176,15.59,16.56,0.000,0.000,0.000,0.000,0.000,45.346
5.181,14.55,15.53,0.000,0.000,0.000,0.000,0.000,45.346
5.186,13.58,14.60,0.000,0.000,0.000,0.000,0.000,45.346
5.191,12.70,13.75,0.000,0.000,0.000,0.000,0.000,45.346
5.196,11.90,12.98,0.000,0.000,0.000,0.000,0.000,45.346
5.201,11.18,12.27,0.000,0.000,0.000,0.000,0.000,45.346
5.206,10.55,11.66,0.000,0.000,0.000,0.000,0.000,45.346
5.211,9.97,11.12,0.000,0.000,0.000,0.000,0.000,45.346
5.216,9.49,10.60,0.000,0.000,0.000,0.000,0.000,45.346
5.221,9.04,10.13,0.000,0.000,0.000,0.000,0.000,45.346
5.226,8.62,9.68,0.000,0.000,0.000,0.000,0.000,45.346
5.231,8.22,9.29,0.000,0.000,0.000,0.000,0.000,45.346
5.236,7.84,8.97,0.000,0.000,0.000,0.000,0.000,45.346
5.241,7.47,8.67,0.000,0.000,0.000,0.000,0.000,45.346
5.246,7.14,8.38,0.000,0.000,0.000,0.000,0.000,45.346
5.251,6.87,8.07,0.000,0.000,0.000,0.000,0.000,45.346
5.256,6.65,7.79,0.000,0.000,0.000,0.000,0.000,45.346
5.261,6.49,7.54,0.000,0.000,0.000,0.000,0.000,45.346
5.266,6.34,7.29,0.000,0.000,0.000,0.000,0.000,45.346
5.271,6.17,7.06,0.000,0.000,0.000,0.000,0.000,45.346
5.276,6.02,6.85,0.000,0.000,0.000,0.000,0.000,45.346
5.281,5.87,6.68,0.000,0.000,0.000,0.000,0.000,45.346
5.286,5.73,6.55,0.000,0.000,0.000,0.000,0.000,45.346
5.291,5.61,6.44,0.000,0.000,0.000,0.000,0.000,45.346
5.296,5.51,6.32,0.000,0.000,0.000,0.000,0.000,45.346
5.301,5.39,6.22,0.000,0.000,0.000,0.000,0.000,45.346
5.306,5.27,6.13,0.000,0.000,0.000,0.000,0.000,45.346
5.311,5.14,6.08,0.000,0.000,0.000,0.000,0.000,45.346
5.316,5.04,6.01,0.000,0.000,0.000,0.000,0.000,45.346
5.321,4.97,5.92,0.000,0.000,0.000,0.000,0.000,45.346
5.326,4.89,5.85,0.000,0.000,0.000,0.000,0.000,45.346
5.331,4.84,5.81,0.000,0.000,0.000,0.000,0.000,45.346
5.336,4.79,5.77,0.000,0.000,0.000,0.000,0.000,45.346
5.341,4.76,5.74,0.000,0.000,0.000,0.000,0.000,45.346
5.346,4.72,5.70,0.000,0.000,0.000,0.000,0.000,45.346
5.351,4.68,5.69,0.000,0.000,0.000,0.000,0.000,45.346
5.356,4.63,5.71,0.000,0.000,0.000,0.000,0.000,45.346
5.361,4.59,5.69,0.000,0.000,0.000,0.000,0.000,45.346
5.366,4.61,5.62,0.000,0.000,0.000,0.000,0.000,45.346
5.371,4.63,5.57,0.000,0.000,0.000,0.000,0.000,45.346
5.376,4.63,5.54,0.000,0.000,0.000,0.000,0.000,45.346
5.381,4.66,5.51,0.000,0.000,0.000,0.000,0.000,45.346
5.386,4.71,5.51,0.000,0.000,0.000,0.000,0.000,45.346
5.391,4.75,5.51,0.000,0.000,0.000,0.000,0.000,45.346
5.396,4.78,5.51,0.000,0.000,0.000,0.000,0.000,45.346
5.401,4.82,5.50,0.000,0.000,0.000,0.000,0.000,45.346
5.406,4.84,5.48,0.000,0.000,0.000,0.000,0.000,45.346
5.411,4.90,5.44,0.000,0.000,0.000,0.000,0.000,45.346
5.416,4.96,5.41,0.000,0.000,0.000,0.000,0.000,45.346
5.421,4.98,5.39,0.000,0.000,0.000,0.000,0.000,45.346
5.426,4.97,5.39,0.000,0.000,0.000,0.000,0.000,45.346
5.431,4.95,5.40,0.000,0.000,0.000,0.000,0.000,45.346
5.436,4.91,5.39,0.000,0.000,0.000,0.000,0.000,45.346
5.441,4.89,5.40,0.000,0.000,0.000,0.000,0.000,45.346
5.446,4.86,5.42,0.000,0.000,0.000,0.000,0.000,45.346
5.451,4.83,5.42,0.000,0.000,0.000,0.000,0.000,45.346
5.456,4.81,5.42,0.000,0.000,0.000,0.000,0.000,45.346
5.461,4.81,5.43,0.000,0.000,0.000,0.000,0.000,45.346
5.466,4.84,5.43,0.000,0.000,0.000,0.000,0.000,45.346
5.471,4.85,5.41,0.000,0.000,0.000,0.000,0.000,45.346
5.476,4.87,5.38,0.000,0.000,0.000,0.000,0.000,45.346
5.481,4.91,5.35,0.000,0.000,0.000,0.000,0.000,45.346
5.486,4.94,5.32,0.000,0.000,0.000,0.000,0.000,45.346
5.491,4.96,5.29,0.000,0.000,0.000,0.000,0.000,45.346
5.496,4.95,5.28,0.000,0.000,0.000,0.000,0.000,45.346
5.501,4.93,5.26,0.000,0.000,0.000,0.000,0.000,45.346
5.506,4.92,5.26,0.000,0.000,0.000,0.000,0.000,45.346
5.511,4.93,5.27,0.000,0.000,0.000,0.000,0.000,45.346
5.516,4.95,5.27,0.000,0.000,0.000,0.000,0.000,45.346
5.521,5.00,5.27,0.000,0.000,0.000,0.000,0.000,45.346
5.526,5.07,5.28,0.000,0.000,0.000,0.000,0.000,45.346
5.531,5.08,5.29,0.000,0.000,0.000,0.000,0.000,45.346
5.536,5.07,5.28,0.000,0.000,0.000,0.000,0.000,45.346
5.541,5.05,5.25,0.000,0.000,0.000,0.000,0.000,45.346
5.546,5.01,5.23,0.000,0.000,0.000,0.000,0.000,45.346
5.551,4.95,5.22,0.000,0.000,0.000,0.000,0.000,45.346
5.556,4.90,5.26,0.000,0.000,0.000,0.000,0.000,45.346
5.561,4.85,5.30,0.000,0.000,0.000,0.000,0.000,45.346
5.566,4.82,5.33,0.000,0.000,0.000,0.000,0.000,45.346
5.571,4.81,5.37,0.000,0.000,0.000,0.000,0.000,45.346
5.576,4.81,5.37,0.000,0.000,0.000,0.000,0.000,45.346
5.581,4.86,5.35,0.000,0.000,0.000,0.000,0.000,45.346
5.586,4.89,5.35,0.000,0.000,0.000,0.000,0.000,45.346
5.591,4.89,5.31,0.000,0.000,0.000,0.000,0.000,45.346
5.596,4.90,5.24,0.000,0.000,0.000,0.000,0.000,45.346
5.601,4.94,5.17,0.000,0.000,0.000,0.000,0.000,45.346
5.606,4.97,5.08,0.000,0.000,0.000,0.000,0.000,45.346
5.611,4.97,5.01,0.000,0.000,0.000,0.000,0.000,45.346
5.616,4.94,4.97,0.000,0.000,0.000,0.000,0.000,45.346
5.621,4.95,4.94,0.000,0.000,0.000,0.000,0.000,45.346
5.626,4.95,4.92,0.000,0.000,0.000,0.000,0.000,45.346
5.631,4.96,4.93,0.000,0.000,0.000,0.000,0.000,45.346
5.636,4.97,4.94,0.000,0.000,0.000,0.000,0.000,45.346
5.641,4.97,4.94,0.000,0.000,0.000,0.000,0.000,45.346
5.646,4.97,4.95,0.000,0.000,0.000,0.000,0.000,45.346
5.651,4.96,4.96,0.000,0.000,0.000,0.000,0.000,45.346
5.656,4.95,4.97,0.000,0.000,0.000,0.000,0.000,45.346
5.661,4.95,5.02,0.000,0.000,0.000,0.000,0.000,45.346
5.666,4.94,5.04,0.000,0.000,0.000,0.000,0.000,45.346
5.671,4.93,5.04,0.000,0.000,0.000,0.000,0.000,45.346
5.676,4.93,5.04,0.000,0.000,0.000,0.000,0.000,45.346
5.681,4.95,5.05,0.000,0.000,0.000,0.000,0.000,45.346
5.686,4.97,5.08,0.000,0.000,0.000,0.000,0.000,45.346
5.691,4.99,5.08,0.000,0.000,0.000,0.000,0.000,45.346
5.696,4.99,5.08,0.000,0.000,0.000,0.000,0.000,45.346
5.701,5.01,5.11,0.000,0.000,0.000,0.000,0.000,45.346
5.706,5.04,5.11,0.000,0.000,0.000,0.000,0.000,45.346
5.711,5.05,5.09,0.000,0.000,0.000,0.000,0.000,45.346
5.716,5.04,5.09,0.000,0.000,0.000,0.000,0.000,45.346
5.721,5.01,5.11,0.000,0.000,0.000,0.000,0.000,45.346
5.726,4.95,5.16,0.000,0.000,0.000,0.000,0.000,45.346
5.731,4.88,5.25,0.000,0.000,0.000,0.000,0.000,45.346
5.736,4.84,5.29,0.000,0.000,0.000,0.000,0.000,45.346
5.741,4.79,5.30,0.000,0.000,0.000,0.000,0.000,45.346
5.746,4.74,5.29,0.000,0.000,0.000,0.000,0.000,45.346
5.751,4.73,5.26,0.000,0.000,0.000,0.000,0.000,45.346
5.756,4.75,5.25,0.000,0.000,0.000,0.000,0.000,45.346
5.761,4.81,5.19,0.000,0.000,0.000,0.000,0.000,45.346
5.766,4.87,5.16,0.000,0.000,0.000,0.000,0.000,45.346
5.771,4.88,5.12,0.000,0.000,0.000,0.000,0.000,45.346
5.776,4.88,5.11,0.000,0.000,0.000,0.000,0.000,45.346
5.781,4.90,5.10,0.000,0.000,0.000,0.000,0.000,45.346
5.786,4.90,5.08,0.000,0.000,0.000,0.000,0.000,45.346
5.791,4.94,5.09,0.000,0.000,0.000,0.000,0.000,45.346
5.796,4.95,5.10,0.000,0.000,0.000,0.000,0.000,45.346
5.801,4.95,5.07,0.000,0.000,0.000,0.000,0.000,45.346
5.806,4.95,5.04,0.000,0.000,0.000,0.000,0.000,45.346
5.811,4.92,5.00,0.000,0.000,0.000,0.000,0.000,45.346
5.816,4.89,4.94,0.000,0.000,0.000,0.000,0.000,45.346
5.821,4.86,4.91,0.000,0.000,0.000,0.000,0.000,45.346
5.826,4.80,4.89,0.000,0.000,0.000,0.000,0.000,45.346
5.831,4.72,4.89,0.000,0.000,0.000,0.000,0.000,45.346
5.836,4.64,4.90,0.000,0.000,0.000,0.000,0.000,45.346
5.841,4.60,4.92,0.000,0.000,0.000,0.000,0.000,45.346
5.846,4.61,4.92,0.000,0.000,0.000,0.000,0.000,45.346
5.851,4.62,4.92,0.000,0.000,0.000,0.000,0.000,45.346
5.856,4.63,4.94,0.000,0.000,0.000,0.000,0.000,45.346
5.861,4.59,4.98,0.000,0.000,0.000,0.000,0.000,45.346
5.866,4.58,5.02,0.000,0.000,0.000,0.000,0.000,45.346
5.871,4.57,5.06,0.000,0.000,0.000,0.000,0.000,45.346
5.876,4.56,5.10,0.000,0.000,0.000,0.000,0.000,45.346
5.881,4.54,5.16,0.000,0.000,0.000,0.000,0.000,45.346
5.886,4.58,5.21,0.000,0.000,0.000,0.000,0.000,45.346
5.891,4.64,5.29,0.000,0.000,0.000,0.000,0.000,45.346
5.896,4.67,5.37,0.000,0.000,0.000,0.000,0.000,45.346
5.901,4.69,5.47,0.000,0.000,0.000,0.000,0.000,45.346
5.906,4.70,5.52,0.000,0.000,0.000,0.000,0.000,45.346
5.911,4.70,5.55,0.000,0.000,0.000,0.000,0.000,45.346
5.916,4.71,5.55,0.000,0.000,0.000,0.000,0.000,45.346
5.921,4.74,5.53,0.000,0.000,0.000,0.000,0.000,45.346
5.926,4.75,5.53,0.000,0.000,0.000,0.000,0.000,45.346
5.931,4.79,5.50,0.000,0.000,0.000,0.000,0.000,45.346
5.936,4.82,5.45,0.000,0.000,0.000,0.000,0.000,45.346
5.941,4.89,5.40,0.000,0.000,0.000,0.000,0.000,45.346
5.946,4.94,5.38,0.000,0.000,0.000,0.000,0.000,45.346
5.951,4.98,5.34,0.000,0.000,0.000,0.000,0.000,45.346
5.956,5.04,5.28,0.000,0.000,0.000,0.000,0.000,45.346
5.961,5.10,5.20,0.000,0.000,0.000,0.000,0.000,45.346
5.966,5.15,5.12,0.000,0.000,0.000,0.000,0.000,45.346
5.971,5.20,5.12,0.000,0.000,0.000,0.000,0.000,45.346
5.976,5.22,5.13,0.000,0.000,0.000,0.000,0.000,45.346
5.981,5.21,5.15,0.000,0.000,0.000,0.000,0.000,45.346
5.986,5.17,5.19,0.000,0.000,0.000,0.000,0.000,45.346
5.991,5.11,5.23,0.000,0.000,0.000,0.000,0.000,45.346
5.996,5.05,5.26,0.000,0.000,0.000,0.000,0.000,45.346
6.001,5.00,5.31,0.000,0.000,0.000,0.000,0.000,45.346
6.006,4.95,7.11,0.000,0.000,0.000,0.000,0.000,45.346
6.011,4.90,10.59,0.000,0.000,0.000,0.000,0.000,45.346
6.016,4.89,15.40,0.000,0.000,0.000,0.000,0.000,45.346
6.021,4.88,21.86,0.000,0.000,0.000,0.000,0.000,45.346
6.026,4.86,28.73,0.000,0.000,0.000,0.000,0.000,45.346
6.031,4.81,36.45,0.000,0.036,0.000,0.000,0.000,45.346
6.036,4.77,44.62,0.000,0.086,-0.155,-0.150,0.000,45.346
6.041,4.77,52.20,0.000,0.132,-1.403,-0.900,-0.620,45.346
6.046,4.76,59.10,0.000,0.173,-2.540,-1.650,-2.113,45.339
6.051,4.76,65.66,0.000,0.213,-3.620,-2.400,-3.554,45.325
6.056,4.79,71.06,0.000,0.246,-4.511,-3.150,-4.969,45.303
6.061,4.78,75.61,0.000,0.274,-5.261,-3.900,-6.379,45.275
6.066,4.76,79.43,0.000,0.297,-5.890,-4.650,-7.801,45.239
6.071,4.73,83.03,0.000,0.319,-6.484,-5.400,-9.248,45.197
6.076,4.68,86.79,0.000,0.341,-7.103,-6.150,-10.089,45.149
6.081,4.66,90.70,0.000,0.365,-7.747,-6.900,-10.850,45.096
6.086,4.64,95.18,0.000,0.392,-8.485,-7.650,-11.551,45.040
6.091,4.64,99.37,0.000,0.418,-9.176,-8.400,-12.270,44.981
6.096,4.66,103.31,0.000,0.442,-9.825,-9.150,-13.001,44.917
6.101,4.63,106.79,0.000,0.463,-10.398,-9.900,-13.662,44.851
6.106,4.59,109.28,0.000,0.478,-10.809,-10.650,-14.293,44.781
6.111,4.59,111.61,0.000,0.492,-11.192,-11.192,-14.769,44.708
6.116,4.60,114.04,0.000,0.507,-11.592,-11.592,-15.014,44.633
6.121,4.63,116.33,0.000,0.520,-11.970,-11.970,-15.202,44.558
6.126,4.65,119.01,0.000,0.537,-12.412,-12.412,-15.410,44.481
6.131,4.70,121.24,0.000,0.550,-12.778,-12.778,-15.595,44.404
6.136,4.75,122.28,0.000,0.557,-12.950,-12.950,-15.604,44.326
6.141,4.76,121.81,0.000,0.554,-12.873,-12.873,-15.350,44.248
6.146,4.75,120.82,0.000,0.548,-12.710,-12.710,-14.945,44.172
6.151,4.74,120.22,0.000,0.544,-12.611,-12.611,-14.579,44.099
6.156,4.76,119.36,0.000,0.539,-12.469,-12.469,-14.189,44.027
6.161,4.82,118.78,0.000,0.535,-12.374,-12.374,-13.858,43.956
6.166,4.89,117.82,0.000,0.530,-12.215,-12.215,-13.480,43.888
6.171,4.92,117.03,0.000,0.525,-12.084,-12.084,-13.122,43.822
6.176,4.92,117.43,0.000,0.527,-12.151,-12.151,-12.979,43.757
6.181,4.92,117.70,0.000,0.529,-12.195,-12.195,-12.884,43.692
6.186,4.92,117.81,0.000,0.529,-12.213,-12.213,-12.790,43.628
6.191,4.94,117.19,0.000,0.526,-12.112,-12.112,-12.608,43.564
6.196,4.96,116.35,0.000,0.521,-11.974,-11.974,-12.377,43.502
6.201,4.95,115.54,0.000,0.516,-11.841,-11.841,-12.164,43.440
6.206,4.95,115.30,0.000,0.514,-11.800,-11.800,-12.017,43.380
6.211,4.95,116.21,0.000,0.520,-11.950,-11.950,-12.032,43.320
6.216,4.93,117.08,0.000,0.525,-12.093,-12.093,-12.159,43.259
6.221,4.93,117.87,0.000,0.530,-12.224,-12.224,-12.265,43.198
6.226,4.94,118.50,0.000,0.534,-12.327,-12.327,-12.387,43.137
6.231,4.94,118.60,0.000,0.534,-12.345,-12.345,-12.439,43.075
6.236,4.92,119.40,0.000,0.539,-12.476,-12.476,-12.551,43.012
6.241,4.90,121.15,0.000,0.550,-12.763,-12.763,-12.795,42.949
6.246,4.88,123.47,0.000,0.564,-13.147,-13.147,-13.234,42.884
6.251,4.88,125.29,0.000,0.575,-13.446,-13.446,-13.613,42.817
6.256,4.87,127.87,0.000,0.590,-13.871,-13.871,-14.067,42.748
6.261,4.84,129.94,0.000,0.603,-14.212,-14.212,-14.526,42.676
6.266,4.83,131.71,0.000,0.614,-14.503,-14.503,-14.904,42.603
6.271,4.85,132.62,0.000,0.619,-14.654,-14.654,-15.140,42.527
6.276,4.85,132.51,0.000,0.619,-14.635,-14.635,-15.200,42.451
6.281,4.87,132.00,0.000,0.616,-14.552,-14.552,-15.074,42.376
6.286,4.91,132.20,0.000,0.617,-14.585,-14.585,-15.094,42.300
6.291,4.93,132.06,0.000,0.616,-14.562,-14.562,-15.023,42.225
6.296,4.97,131.98,0.000,0.615,-14.548,-14.548,-14.968,42.150
6.301,5.02,131.63,0.000,0.613,-14.490,-14.490,-14.876,42.075
6.306,5.06,131.31,0.000,0.611,-14.438,-14.438,-14.769,42.001
6.311,5.09,131.28,0.000,0.611,-14.434,-14.434,-14.678,41.928
6.316,5.12,132.50,0.000,0.619,-14.634,-14.634,-14.800,41.854
6.321,5.16,134.44,0.000,0.630,-14.954,-14.954,-15.092,41.779
6.326,5.18,135.93,0.000,0.639,-15.199,-15.199,-15.385,41.703
6.331,5.17,136.95,0.000,0.646,-15.368,-15.368,-15.604,41.626
6.336,5.14,137.66,0.000,0.650,-15.485,-15.485,-15.760,41.547
6.341,5.10,137.62,0.000,0.650,-15.478,-15.478,-15.795,41.468
6.346,5.06,136.77,0.000,0.644,-15.338,-15.338,-15.663,41.390
6.351,5.00,135.58,0.000,0.637,-15.142,-15.142,-15.457,41.312
6.356,4.94,133.47,0.000,0.624,-14.794,-14.794,-15.083,41.235
6.361,4.85,131.90,0.000,0.615,-14.535,-14.535,-14.695,41.161
6.366,4.78,131.64,0.000,0.613,-14.493,-14.493,-14.552,41.088
6.371,4.68,131.16,0.000,0.610,-14.414,-14.414,-14.403,41.016
6.376,4.62,130.89,0.000,0.609,-14.369,-14.369,-14.300,40.944
6.381,4.60,130.31,0.000,0.605,-14.274,-14.274,-14.194,40.873
6.386,4.58,129.52,0.000,0.600,-14.143,-14.143,-14.056,40.802
6.391,4.55,129.33,0.000,0.599,-14.113,-14.113,-13.956,40.732
6.396,4.54,128.85,0.000,0.596,-14.033,-14.033,-13.899,40.662
6.401,4.53,128.40,0.000,0.594,-13.959,-13.959,-13.798,40.593
6.406,4.53,128.03,0.000,0.591,-13.897,-13.897,-13.732,40.524
6.411,4.52,128.04,0.000,0.591,-13.899,-13.899,-13.684,40.456
6.416,4.48,128.80,0.000,0.596,-14.025,-14.025,-13.813,40.387
6.421,4.42,129.04,0.000,0.598,-14.064,-14.064,-13.889,40.318
6.426,4.38,130.00,0.000,0.603,-14.223,-14.223,-14.063,40.248
6.431,4.36,130.95,0.000,0.609,-14.379,-14.379,-14.249,40.177
6.436,4.34,132.09,0.000,0.616,-14.566,-14.566,-14.479,40.105
6.441,4.29,132.86,0.000,0.621,-14.693,-14.693,-14.676,40.033
6.446,4.29,132.76,0.000,0.620,-14.677,-14.677,-14.730,39.959
6.451,4.27,132.12,0.000,0.616,-14.571,-14.571,-14.639,39.885
6.456,4.27,132.36,0.000,0.618,-14.612,-14.612,-14.678,39.812
6.461,4.31,132.74,0.000,0.620,-14.674,-14.674,-14.738,39.739
6.466,4.32,133.23,0.000,0.623,-14.754,-14.754,-14.810,39.665
6.471,4.33,133.41,0.000,0.624,-14.784,-14.784,-14.868,39.591
6.476,4.31,133.09,0.000,0.622,-14.731,-14.731,-14.813,39.516
6.481,4.32,132.41,0.000,0.618,-14.619,-14.619,-14.708,39.442
6.486,4.34,132.65,0.000,0.619,-14.659,-14.659,-14.701,39.369
6.491,4.35,132.79,0.000,0.620,-14.683,-14.683,-14.738,39.295
6.496,4.33,132.73,0.000,0.620,-14.671,-14.671,-14.706,39.222
6.501,4.31,132.26,0.000,0.617,-14.595,-14.595,-14.647,39.148
6.506,4.32,132.11,0.000,0.616,-14.570,-14.570,-14.559,39.076
6.511,4.35,133.12,0.000,0.622,-14.737,-14.737,-14.685,39.002
6.516,4.39,134.18,0.000,0.629,-14.911,-14.911,-14.879,38.929
6.521,4.46,135.42,0.000,0.636,-15.115,-15.115,-15.111,38.854
6.526,4.56,136.47,0.000,0.643,-15.289,-15.289,-15.321,38.778
6.531,4.69,136.90,0.000,0.645,-15.360,-15.360,-15.465,38.700
6.536,4.81,137.31,0.000,0.648,-15.427,-15.427,-15.527,38.623
6.541,4.90,137.64,0.000,0.650,-15.481,-15.481,-15.638,38.545
6.546,4.98,136.88,0.000,0.645,-15.356,-15.356,-15.541,38.467
6.551,5.07,135.81,0.000,0.639,-15.180,-15.180,-15.367,38.390
6.556,5.16,134.25,0.000,0.629,-14.922,-14.922,-15.082,38.313
6.561,5.25,133.19,0.000,0.623,-14.748,-14.748,-14.820,38.239
6.566,5.30,132.15,0.000,0.616,-14.576,-14.576,-14.605,38.165
6.571,5.31,130.96,0.000,0.609,-14.380,-14.380,-14.350,38.093
6.576,5.28,129.87,0.000,0.603,-14.200,-14.200,-14.120,38.022
6.581,5.27,127.98,0.000,0.591,-13.890,-13.890,-13.779,37.952
6.586,5.26,126.19,0.000,0.580,-13.595,-13.595,-13.422,37.884
6.591,5.21,124.20,0.000,0.568,-13.267,-13.267,-13.025,37.818
6.596,5.16,122.19,0.000,0.556,-12.935,-12.935,-12.629,37.754
6.601,5.10,120.69,0.000,0.547,-12.688,-12.688,-12.287,37.691
6.606,5.05,119.33,0.000,0.539,-12.465,-12.465,-11.995,37.631
6.611,5.01,118.85,0.000,0.536,-12.386,-12.386,-11.857,37.571
6.616,4.99,118.72,0.000,0.535,-12.363,-12.363,-11.795,37.512
6.621,4.96,118.32,0.000,0.533,-12.299,-12.299,-11.750,37.453
6.626,4.94,118.57,0.000,0.534,-12.338,-12.338,-11.774,37.394
6.631,4.91,119.22,0.000,0.538,-12.446,-12.446,-11.872,37.335
6.636,4.88,120.44,0.000,0.545,-12.647,-12.647,-12.156,37.275
6.641,4.85,120.74,0.000,0.547,-12.696,-12.696,-12.309,37.214
6.646,4.85,120.64,0.000,0.547,-12.680,-12.680,-12.360,37.152
6.651,4.84,120.67,0.000,0.547,-12.685,-12.685,-12.434,37.090
6.656,4.81,120.46,0.000,0.546,-12.650,-12.650,-12.447,37.028
6.661,4.79,120.45,0.000,0.545,-12.649,-12.649,-12.451,36.966
6.666,4.75,120.97,0.000,0.549,-12.734,-12.734,-12.555,36.903
6.671,4.72,122.16,0.000,0.556,-12.930,-12.930,-12.780,36.840
6.676,4.72,123.32,0.000,0.563,-13.122,-13.122,-13.012,36.776
6.681,4.75,125.13,0.000,0.574,-13.420,-13.420,-13.354,36.710
6.686,4.78,126.24,0.000,0.581,-13.602,-13.602,-13.623,36.642
6.691,4.79,127.36,0.000,0.587,-13.787,-13.787,-13.890,36.573
6.696,4.79,128.27,0.000,0.593,-13.937,-13.937,-14.108,36.503
6.701,4.78,128.25,0.000,0.593,-13.934,-13.934,-14.175,36.433
6.706,4.79,128.06,0.000,0.592,-13.903,-13.903,-14.137,36.362
6.711,4.83,129.08,0.000,0.598,-14.071,-14.071,-14.290,36.291
6.716,4.86,129.39,0.000,0.600,-14.122,-14.122,-14.368,36.219
6.721,4.86,128.83,0.000,0.596,-14.030,-14.030,-14.280,36.148
6.726,4.86,127.78,0.000,0.590,-13.856,-13.856,-14.116,36.076
6.731,4.85,126.16,0.000,0.580,-13.590,-13.590,-13.827,36.007
6.736,4.83,124.88,0.000,0.572,-13.378,-13.378,-13.525,35.938
6.741,4.82,123.74,0.000,0.565,-13.191,-13.191,-13.258,35.871
6.746,4.80,122.95,0.000,0.561,-13.061,-13.061,-13.053,35.805
6.751,4.79,122.17,0.000,0.556,-12.932,-12.932,-12.860,35.741
6.756,4.78,121.40,0.000,0.551,-12.806,-12.806,-12.685,35.677
6.761,4.78,120.53,0.000,0.546,-12.662,-12.662,-12.512,35.614
6.766,4.74,120.14,0.000,0.544,-12.598,-12.598,-12.353,35.552
6.771,4.70,120.72,0.000,0.547,-12.693,-12.693,-12.420,35.490
6.776,4.68,121.00,0.000,0.549,-12.739,-12.739,-12.469,35.428
6.781,4.64,121.06,0.000,0.549,-12.750,-12.750,-12.512,35.365
6.786,4.65,120.56,0.000,0.546,-12.667,-12.667,-12.473,35.303
6.791,4.66,119.83,0.000,0.542,-12.547,-12.547,-12.369,35.240
6.796,4.65,118.77,0.000,0.535,-12.371,-12.371,-12.204,35.179
6.801,4.64,118.29,0.000,0.532,-12.292,-12.292,-12.091,35.118
6.806,4.61,118.06,0.000,0.531,-12.256,-12.256,-12.033,35.058
6.811,4.57,117.48,0.000,0.527,-12.160,-12.160,-11.942,34.998
6.816,4.57,116.88,0.000,0.524,-12.061,-12.061,-11.820,34.939
6.821,4.59,117.04,0.000,0.525,-12.087,-12.087,-11.821,34.880
6.826,4.60,116.72,0.000,0.523,-12.034,-12.034,-11.802,34.820
6.831,4.58,116.30,0.000,0.520,-11.965,-11.965,-11.744,34.762
6.836,4.56,115.33,0.000,0.514,-11.805,-11.805,-11.601,34.703
6.841,4.55,114.87,0.000,0.512,-11.729,-11.729,-11.483,34.646
6.846,4.54,114.82,0.000,0.511,-11.721,-11.721,-11.468,34.588
6.851,4.57,115.00,0.000,0.512,-11.750,-11.750,-11.477,34.531
6.856,4.61,115.89,0.000,0.518,-11.897,-11.897,-11.608,34.473
6.861,4.63,117.36,0.000,0.527,-12.140,-12.140,-11.875,34.415
6.866,4.65,118.56,0.000,0.534,-12.338,-12.338,-12.138,34.354
6.871,4.67,119.73,0.000,0.541,-12.529,-12.529,-12.391,34.293
6.876,4.71,121.06,0.000,0.549,-12.749,-12.749,-12.713,34.230
6.881,4.74,122.81,0.000,0.560,-13.038,-13.038,-13.041,34.166
6.886,4.75,124.35,0.000,0.569,-13.292,-13.292,-13.407,34.100
6.891,4.75,125.08,0.000,0.574,-13.411,-13.411,-13.607,34.032
6.896,4.74,125.98,0.000,0.579,-13.560,-13.560,-13.794,33.964
6.901,4.73,126.70,0.000,0.583,-13.679,-13.679,-13.960,33.894
6.906,4.70,128.01,0.000,0.591,-13.895,-13.895,-14.174,33.824
6.911,4.66,128.74,0.000,0.596,-14.015,-14.015,-14.365,33.753
6.916,4.61,128.43,0.000,0.594,-13.964,-13.964,-14.345,33.681
6.921,4.55,128.05,0.000,0.592,-13.901,-13.901,-14.257,33.609
6.926,4.49,127.81,0.000,0.590,-13.862,-13.862,-14.193,33.538
6.931,4.45,127.08,0.000,0.586,-13.742,-13.742,-14.051,33.468
6.936,4.41,126.55,0.000,0.582,-13.653,-13.653,-13.892,33.398
6.941,4.38,126.13,0.000,0.580,-13.585,-13.585,-13.788,33.329
6.946,4.36,125.06,0.000,0.573,-13.408,-13.408,-13.572,33.260
6.951,4.34,123.65,0.000,0.565,-13.176,-13.176,-13.284,33.193
6.956,4.31,122.66,0.000,0.559,-13.012,-13.012,-13.031,33.127
6.961,4.31,122.33,0.000,0.557,-12.959,-12.959,-12.920,33.062
6.966,4.32,121.70,0.000,0.553,-12.855,-12.855,-12.778,32.998
6.971,4.31,120.60,0.000,0.546,-12.673,-12.673,-12.556,32.935
6.976,4.34,119.01,0.000,0.537,-12.412,-12.412,-12.283,32.873
6.981,4.38,117.15,0.000,0.525,-12.105,-12.105,-11.904,32.812
6.986,4.43,116.43,0.000,0.521,-11.987,-11.987,-11.687,32.753
6.991,4.45,116.18,0.000,0.520,-11.945,-11.945,-11.600,32.695
6.996,4.48,115.60,0.000,0.516,-11.850,-11.850,-11.475,32.637
7.001,4.49,114.91,0.000,0.512,-11.737,-11.737,-11.354,32.580
7.006,4.50,114.15,0.000,0.507,-11.610,-11.610,-11.203,32.524
7.011,4.52,113.99,0.000,0.506,-11.584,-11.584,-11.173,32.468
7.016,4.57,113.71,0.000,0.505,-11.539,-11.539,-11.133,32.412
7.021,4.59,113.54,0.000,0.504,-11.510,-11.510,-11.102,32.357
7.026,4.56,113.07,0.000,0.501,-11.433,-11.433,-11.047,32.301
7.031,4.52,112.18,0.000,0.495,-11.286,-11.286,-10.951,32.246
7.036,4.50,111.23,0.000,0.490,-11.129,-11.129,-10.771,32.192
7.041,4.50,111.96,0.000,0.494,-11.249,-11.249,-10.840,32.138
7.046,4.54,112.85,0.000,0.499,-11.396,-11.396,-11.009,32.083
7.051,4.57,113.63,0.000,0.504,-11.525,-11.525,-11.185,32.028
7.056,4.58,114.06,0.000,0.507,-11.596,-11.596,-11.323,31.972
7.061,4.58,114.87,0.000,0.512,-11.730,-11.730,-11.492,31.915
7.066,4.54,116.35,0.000,0.521,-11.972,-11.972,-11.807,31.856
7.071,4.50,117.18,0.000,0.526,-12.110,-12.110,-12.042,31.797
7.076,4.50,117.20,0.000,0.526,-12.114,-12.114,-12.126,31.736
7.081,4.50,116.87,0.000,0.524,-12.059,-12.059,-12.137,31.675
7.086,4.53,116.49,0.000,0.521,-11.996,-11.996,-12.076,31.615
7.091,4.55,116.40,0.000,0.521,-11.981,-11.981,-12.069,31.555
7.096,4.54,116.69,0.000,0.523,-12.028,-12.028,-12.083,31.494
7.101,4.52,116.75,0.000,0.523,-12.040,-12.040,-12.113,31.434
7.106,4.54,117.33,0.000,0.527,-12.134,-12.134,-12.175,31.373
7.111,4.57,117.46,0.000,0.527,-12.155,-12.155,-12.220,31.312
7.116,4.62,117.63,0.000,0.528,-12.185,-12.185,-12.221,31.251
7.121,4.65,118.56,0.000,0.534,-12.338,-12.338,-12.372,31.189
7.126,4.67,120.46,0.000,0.546,-12.650,-12.650,-12.672,31.127
7.131,4.69,121.99,0.000,0.555,-12.902,-12.902,-12.978,31.063
7.136,4.73,122.78,0.000,0.560,-13.033,-13.033,-13.191,30.997
7.141,4.75,123.61,0.000,0.565,-13.170,-13.170,-13.381,30.931
7.146,4.75,123.97,0.000,0.567,-13.229,-13.229,-13.472,30.864
7.151,4.73,124.14,0.000,0.568,-13.256,-13.256,-13.524,30.796
7.156,4.68,123.76,0.000,0.566,-13.194,-13.194,-13.487,30.729
7.161,4.65,123.59,0.000,0.564,-13.166,-13.166,-13.428,30.661
7.166,4.62,123.59,0.000,0.565,-13.166,-13.166,-13.403,30.594
7.171,4.62,123.34,0.000,0.563,-13.125,-13.125,-13.337,30.527
7.176,4.63,122.76,0.000,0.560,-13.030,-13.030,-13.205,30.461
7.181,4.65,122.31,0.000,0.557,-12.954,-12.954,-13.080,30.395
7.186,4.65,122.46,0.000,0.558,-12.980,-12.980,-13.040,30.330
7.191,4.62,123.97,0.000,0.567,-13.228,-13.228,-13.198,30.265
7.196,4.58,126.09,0.000,0.580,-13.578,-13.578,-13.576,30.198
7.201,4.54,127.68,0.000,0.589,-13.840,-13.840,-13.884,30.129
7.206,4.55,128.56,0.000,0.595,-13.985,-13.985,-14.116,30.059
7.211,4.58,128.86,0.000,0.596,-14.035,-14.035,-14.220,29.988
7.216,4.58,128.77,0.000,0.596,-14.019,-14.019,-14.252,29.917
7.221,4.56,128.56,0.000,0.595,-13.986,-13.986,-14.213,29.846
7.226,4.53,128.65,0.000,0.595,-14.001,-14.001,-14.196,29.775
7.231,4.49,128.54,0.000,0.595,-13.982,-13.982,-14.178,29.704
7.236,4.45,128.98,0.000,0.597,-14.054,-14.054,-14.210,29.633
7.241,4.41,129.35,0.000,0.599,-14.116,-14.116,-14.255,29.562
7.246,4.35,130.53,0.000,0.607,-14.310,-14.310,-14.418,29.490
7.251,4.31,131.81,0.000,0.614,-14.521,-14.521,-14.639,29.417
7.256,4.28,132.66,0.000,0.620,-14.661,-14.661,-14.811,29.344
7.261,4.29,133.48,0.000,0.624,-14.795,-14.795,-14.960,29.269
7.266,4.33,134.81,0.000,0.633,-15.015,-15.015,-15.193,29.194
7.271,4.41,135.73,0.000,0.638,-15.167,-15.167,-15.387,29.118
7.276,4.46,136.30,0.000,0.642,-15.260,-15.260,-15.511,29.040
7.281,4.47,136.17,0.000,0.641,-15.239,-15.239,-15.487,28.963
7.286,4.52,136.42,0.000,0.642,-15.279,-15.279,-15.516,28.885
7.291,4.58,137.35,0.000,0.648,-15.434,-15.434,-15.638,28.807
7.296,4.64,138.10,0.000,0.652,-15.556,-15.556,-15.765,28.729
7.301,4.67,138.16,0.000,0.653,-15.567,-15.567,-15.811,28.650
7.306,4.72,138.40,0.000,0.654,-15.606,-15.606,-15.824,28.571
7.311,4.79,138.64,0.000,0.656,-15.645,-15.645,-15.843,28.492
7.316,4.85,138.93,0.000,0.658,-15.694,-15.694,-15.867,28.412
7.321,4.88,138.97,0.000,0.658,-15.699,-15.699,-15.877,28.333
7.326,4.90,139.07,0.000,0.658,-15.716,-15.716,-15.871,28.254
7.331,4.90,139.35,0.000,0.660,-15.763,-15.763,-15.888,28.174
7.336,4.88,139.49,0.000,0.661,-15.786,-15.786,-15.923,28.095
7.341,4.88,138.49,0.000,0.655,-15.621,-15.621,-15.771,28.015
7.346,4.87,137.11,0.000,0.647,-15.394,-15.394,-15.532,27.937
7.351,4.84,135.13,0.000,0.634,-15.067,-15.067,-15.152,27.860
7.356,4.81,133.16,0.000,0.623,-14.743,-14.743,-14.765,27.786
7.361,4.83,131.26,0.000,0.611,-14.430,-14.430,-14.367,27.713
7.366,4.89,130.06,0.000,0.604,-14.231,-14.231,-14.063,27.642
7.371,4.92,128.93,0.000,0.597,-14.046,-14.046,-13.816,27.572
7.376,4.93,127.46,0.000,0.588,-13.803,-13.803,-13.516,27.504
7.381,4.93,126.08,0.000,0.580,-13.576,-13.576,-13.247,27.437
7.386,4.95,125.92,0.000,0.579,-13.550,-13.550,-13.113,27.371
7.391,4.96,125.41,0.000,0.576,-13.466,-13.466,-13.047,27.306
7.396,4.96,125.12,0.000,0.574,-13.418,-13.418,-12.967,27.241
7.401,4.94,125.58,0.000,0.577,-13.494,-13.494,-13.034,27.176
7.406,4.92,125.97,0.000,0.579,-13.559,-13.559,-13.128,27.110
7.411,4.89,125.95,0.000,0.579,-13.555,-13.555,-13.171,27.044
7.416,4.85,125.45,0.000,0.576,-13.472,-13.472,-13.150,26.979
7.421,4.81,124.44,0.000,0.570,-13.306,-13.306,-13.038,26.913
7.426,4.80,123.25,0.000,0.562,-13.110,-13.110,-12.844,26.848
7.431,4.80,121.76,0.000,0.553,-12.864,-12.864,-12.581,26.785
7.436,4.82,121.11,0.000,0.549,-12.758,-12.758,-12.440,26.722
7.441,4.84,120.69,0.000,0.547,-12.688,-12.688,-12.326,26.660
7.446,4.85,120.28,0.000,0.544,-12.621,-12.621,-12.261,26.599
7.451,4.85,119.79,0.000,0.541,-12.540,-12.540,-12.165,26.538
7.456,4.84,120.29,0.000,0.545,-12.622,-12.622,-12.233,26.477
7.461,4.82,121.34,0.000,0.551,-12.795,-12.795,-12.376,26.415
7.466,4.80,122.58,0.000,0.558,-13.000,-13.000,-12.660,26.353
7.471,4.77,122.87,0.000,0.560,-13.047,-13.047,-12.795,26.289
7.476,4.77,122.81,0.000,0.560,-13.037,-13.037,-12.872,26.225
7.481,4.76,123.04,0.000,0.561,-13.076,-13.076,-12.921,26.160
7.486,4.74,123.76,0.000,0.566,-13.194,-13.194,-13.076,26.095
7.491,4.73,124.29,0.000,0.569,-13.281,-13.281,-13.198,26.030
7.496,4.75,125.02,0.000,0.573,-13.401,-13.401,-13.341,25.964
7.501,4.80,126.09,0.000,0.580,-13.577,-13.577,-13.539,25.896
7.506,4.84,127.13,0.000,0.586,-13.750,-13.750,-13.747,25.828
7.511,4.84,127.50,0.000,0.588,-13.811,-13.811,-13.906,25.759
7.516,4.88,126.59,0.000,0.583,-13.660,-13.660,-13.818,25.689
7.521,4.90,124.78,0.000,0.572,-13.362,-13.362,-13.530,25.621
7.526,4.89,122.86,0.000,0.560,-13.046,-13.046,-13.184,25.554
7.531,4.87,120.93,0.000,0.548,-12.727,-12.727,-12.791,25.489
7.536,4.83,118.95,0.000,0.536,-12.402,-12.402,-12.370,25.426
7.541,4.82,117.19,0.000,0.526,-12.111,-12.111,-11.970,25.366
7.546,4.79,115.57,0.000,0.516,-11.845,-11.845,-11.604,25.307
7.551,4.78,114.28,0.000,0.508,-11.632,-11.632,-11.308,25.249
7.556,4.76,113.04,0.000,0.501,-11.428,-11.428,-11.008,25.194
7.561,4.72,112.60,0.000,0.498,-11.356,-11.356,-10.874,25.139
7.566,4.70,112.15,0.000,0.495,-11.282,-11.282,-10.768,25.085
7.571,4.69,111.47,0.000,0.491,-11.169,-11.169,-10.651,25.031
7.576,4.69,110.30,0.000,0.484,-10.976,-10.976,-10.460,24.978
7.581,4.73,109.75,0.000,0.481,-10.886,-10.886,-10.332,24.926
7.586,4.77,109.15,0.000,0.477,-10.787,-10.787,-10.249,24.875
7.591,4.80,109.30,0.000,0.478,-10.812,-10.812,-10.238,24.824
7.596,4.81,109.25,0.000,0.478,-10.804,-10.804,-10.267,24.773
7.601,4.82,109.64,0.000,0.480,-10.868,-10.868,-10.353,24.721
7.606,4.85,110.06,0.000,0.482,-10.937,-10.937,-10.472,24.669
7.611,4.87,110.50,0.000,0.485,-11.010,-11.010,-10.608,24.616
7.616,4.89,110.64,0.000,0.486,-11.033,-11.033,-10.670,24.563
7.621,4.89,110.64,0.000,0.486,-11.033,-11.033,-10.749,24.510
7.626,4.90,110.62,0.000,0.486,-11.029,-11.029,-10.787,24.456
7.631,4.90,110.37,0.000,0.484,-10.988,-10.988,-10.805,24.402
7.636,4.94,109.52,0.000,0.479,-10.848,-10.848,-10.710,24.348
7.641,4.99,108.17,0.000,0.471,-10.626,-10.626,-10.499,24.295
7.646,5.01,107.64,0.000,0.468,-10.539,-10.539,-10.358,24.243
7.651,5.04,107.51,0.000,0.467,-10.517,-10.517,-10.300,24.191
7.656,5.06,107.62,0.000,0.468,-10.535,-10.535,-10.317,24.140
7.661,5.09,107.84,0.000,0.469,-10.571,-10.571,-10.336,24.088
7.666,5.13,107.67,0.000,0.468,-10.544,-10.544,-10.322,24.036
7.671,5.13,107.89,0.000,0.469,-10.579,-10.579,-10.375,23.985
7.676,5.13,107.58,0.000,0.467,-10.528,-10.528,-10.341,23.933
7.681,5.16,107.95,0.000,0.470,-10.590,-10.590,-10.393,23.881
7.686,5.21,108.70,0.000,0.474,-10.713,-10.713,-10.538,23.829
7.691,5.26,109.94,0.000,0.482,-10.918,-10.918,-10.758,23.775
7.696,5.29,111.47,0.000,0.491,-11.168,-11.168,-11.036,23.721
7.701,5.33,113.88,0.000,0.506,-11.567,-11.567,-11.477,23.665
7.706,5.37,116.59,0.000,0.522,-12.013,-12.013,-11.985,23.606
7.711,5.44,119.73,0.000,0.541,-12.530,-12.530,-12.644,23.545
7.716,5.51,122.91,0.000,0.560,-13.055,-13.055,-13.296,23.480
7.721,5.54,125.42,0.000,0.576,-13.467,-13.467,-13.867,23.412
7.726,5.54,126.91,0.000,0.585,-13.712,-13.712,-14.247,23.341
7.731,5.53,128.16,0.000,0.592,-13.920,-13.920,-14.548,23.269
7.736,5.51,128.70,0.000,0.596,-14.008,-14.008,-14.681,23.196
7.741,5.44,129.35,0.000,0.599,-14.115,-14.115,-14.802,23.123
7.746,5.35,129.25,0.000,0.599,-14.099,-14.099,-14.779,23.049
7.751,5.26,128.95,0.000,0.597,-14.049,-14.049,-14.677,22.975
7.756,5.19,129.25,0.000,0.599,-14.099,-14.099,-14.670,22.902
7.761,5.13,129.24,0.000,0.599,-14.097,-14.097,-14.600,22.828
7.766,5.10,129.57,0.000,0.601,-14.152,-14.152,-14.582,22.756
7.771,5.07,130.02,0.000,0.604,-14.226,-14.226,-14.610,22.683
7.776,5.07,130.77,0.000,0.608,-14.350,-14.350,-14.673,22.609
7.781,5.04,132.00,0.000,0.616,-14.552,-14.552,-14.858,22.536
7.786,5.01,132.56,0.000,0.619,-14.644,-14.644,-14.946,22.461
7.791,5.01,133.52,0.000,0.625,-14.803,-14.803,-15.072,22.386
7.796,4.99,134.81,0.000,0.633,-15.014,-15.014,-15.270,22.310
7.801,4.93,136.39,0.000,0.642,-15.275,-15.275,-15.538,22.233
7.806,4.86,137.29,0.000,0.648,-15.424,-15.424,-15.733,22.155
7.811,4.79,138.00,0.000,0.652,-15.541,-15.541,-15.861,22.076
7.816,4.73,138.54,0.000,0.655,-15.630,-15.630,-15.944,21.996
7.821,4.71,138.90,0.000,0.657,-15.689,-15.689,-16.005,21.916
7.826,4.68,139.21,0.000,0.659,-15.739,-15.739,-16.029,21.836
7.831,4.69,139.56,0.000,0.661,-15.798,-15.798,-16.077,21.756
7.836,4.72,139.69,0.000,0.662,-15.818,-15.818,-16.079,21.676
7.841,4.71,139.85,0.000,0.663,-15.846,-15.846,-16.084,21.595
7.846,4.72,139.47,0.000,0.661,-15.783,-15.783,-16.019,21.515
7.851,4.74,138.77,0.000,0.657,-15.667,-15.667,-15.878,21.435
7.856,4.77,137.26,0.000,0.647,-15.419,-15.419,-15.607,21.356
7.861,4.79,136.04,0.000,0.640,-15.217,-15.217,-15.325,21.279
7.866,4.83,134.36,0.000,0.630,-14.941,-14.941,-15.011,21.203
7.871,4.87,132.12,0.000,0.616,-14.571,-14.571,-14.585,21.129
7.876,4.91,129.75,0.000,0.602,-14.181,-14.181,-14.079,21.058
7.881,4.91,128.86,0.000,0.596,-14.034,-14.034,-13.812,20.988
7.886,4.90,128.41,0.000,0.594,-13.961,-13.961,-13.641,20.919
7.891,4.88,128.38,0.000,0.594,-13.956,-13.956,-13.576,20.851
7.896,4.88,128.66,0.000,0.595,-14.001,-14.001,-13.607,20.783
7.901,4.87,129.12,0.000,0.598,-14.077,-14.077,-13.690,20.715
7.906,4.85,129.44,0.000,0.600,-14.131,-14.131,-13.772,20.647
7.911,4.81,129.82,0.000,0.602,-14.192,-14.192,-13.876,20.577
7.916,4.73,130.17,0.000,0.604,-14.250,-14.250,-13.945,20.508
7.921,4.66,130.73,0.000,0.608,-14.343,-14.343,-14.075,20.438
7.926,4.60,131.56,0.000,0.613,-14.479,-14.479,-14.261,20.367
7.931,4.53,132.21,0.000,0.617,-14.586,-14.586,-14.427,20.295
7.936,4.49,133.03,0.000,0.622,-14.721,-14.721,-14.574,20.223
7.941,4.44,134.16,0.000,0.629,-14.908,-14.908,-14.798,20.149
7.946,4.41,135.07,0.000,0.634,-15.058,-15.058,-15.023,20.075
7.951,4.40,135.54,0.000,0.637,-15.135,-15.135,-15.146,19.999
7.956,4.37,135.63,0.000,0.638,-15.150,-15.150,-15.207,19.923
7.961,4.35,135.58,0.000,0.637,-15.142,-15.142,-15.213,19.847
7.966,4.34,136.52,0.000,0.643,-15.296,-15.296,-15.318,19.771
7.971,4.32,138.57,0.000,0.655,-15.635,-15.635,-15.668,19.693
7.976,4.38,139.44,0.000,0.661,-15.777,-15.777,-15.865,19.615
7.981,4.44,140.27,0.000,0.666,-15.915,-15.915,-16.044,19.535
7.986,4.49,140.21,0.000,0.665,-15.904,-15.904,-16.107,19.454
7.991,4.54,139.70,0.000,0.662,-15.821,-15.821,-16.013,19.374
7.996,4.61,138.87,0.000,0.657,-15.684,-15.684,-15.869,19.294
8.001,4.67,137.92,0.000,0.651,-15.527,-15.527,-15.693,19.215
8.006,4.71,135.58,0.000,0.637,-15.141,-15.141,-15.307,19.138
8.011,4.73,131.95,0.000,0.615,-14.544,-14.544,-14.670,19.063
8.016,4.73,127.38,0.000,0.588,-13.791,-13.809,-13.832,18.991
8.021,4.71,122.09,0.000,0.555,-12.920,-13.059,-12.920,18.924
8.026,4.69,116.35,0.000,0.521,-11.973,-12.309,-11.997,18.862
8.031,4.66,110.33,0.000,0.484,-10.981,-11.559,-11.062,18.805
8.036,4.62,104.19,0.000,0.447,-9.970,-10.809,-10.094,18.752
8.041,4.62,98.06,0.000,0.410,-8.959,-10.059,-9.153,18.704
8.046,4.59,91.99,0.000,0.373,-7.959,-9.309,-8.186,18.660
8.051,4.54,86.04,0.000,0.337,-6.979,-8.559,-7.216,18.622
8.056,4.51,80.29,0.000,0.302,-6.033,-7.809,-6.262,18.588
8.061,4.49,74.76,0.000,0.268,-5.120,-7.059,-5.258,18.559
8.066,4.47,69.48,0.000,0.236,-4.250,-6.309,-4.311,18.535
8.071,4.43,64.46,0.000,0.206,-3.424,-5.559,-3.294,18.516
8.076,4.39,59.71,0.000,0.177,-2.640,-4.809,-2.397,18.502
8.081,4.35,55.24,0.000,0.150,-1.904,-4.059,-1.668,18.492
8.086,4.32,51.10,0.000,0.125,-1.222,-3.309,-0.904,18.486
8.091,4.31,47.25,0.000,0.102,-0.588,-2.559,0.000,18.484
8.096,4.30,43.67,0.000,0.080,0.000,-1.809,0.000,18.484
8.101,4.31,40.34,0.000,0.060,0.000,-1.059,0.000,18.484
8.106,4.31,37.26,0.000,0.041,0.000,-0.309,0.000,18.484
8.111,4.31,34.43,0.000,0.024,0.000,0.000,0.000,18.484
8.116,4.30,31.82,0.000,0.008,0.000,0.000,0.000,18.484
8.121,4.30,29.41,0.000,0.000,0.000,0.000,0.000,18.484
8.126,4.28,27.19,0.000,0.000,0.000,0.000,0.000,18.484
8.131,4.25,25.15,0.000,0.000,0.000,0.000,0.000,18.484
8.136,4.21,23.30,0.000,0.000,0.000,0.000,0.000,18.484
8.141,4.18,21.60,0.000,0.000,0.000,0.000,0.000,18.484
8.146,4.20,20.04,0.000,0.000,0.000,0.000,0.000,18.484
8.151,4.24,18.60,0.000,0.000,0.000,0.000,0.000,18.484
8.156,4.31,17.26,0.000,0.000,0.000,0.000,0.000,18.484
8.161,4.41,16.04,0.000,0.000,0.000,0.000,0.000,18.484
8.166,4.49,14.94,0.000,0.000,0.000,0.000,0.000,18.484
8.171,4.55,13.93,0.000,0.000,0.000,0.000,0.000,18.484
8.176,4.63,13.01,0.000,0.000,0.000,0.000,0.000,18.484
8.181,4.68,12.16,0.000,0.000,0.000,0.000,0.000,18.484
8.186,4.74,11.44,0.000,0.000,0.000,0.000,0.000,18.484
8.191,4.76,10.81,0.000,0.000,0.000,0.000,0.000,18.484
8.196,4.75,10.18,0.000,0.000,0.000,0.000,0.000,18.484
8.201,4.73,9.61,0.000,0.000,0.000,0.000,0.000,18.484
8.206,4.75,9.07,0.000,0.000,0.000,0.000,0.000,18.484
8.211,4.80,8.58,0.000,0.000,0.000,0.000,0.000,18.484
8.216,4.84,8.13,0.000,0.000,0.000,0.000,0.000,18.484
8.221,4.87,7.74,0.000,0.000,0.000,0.000,0.000,18.484
8.226,4.91,7.42,0.000,0.000,0.000,0.000,0.000,18.484
8.231,4.94,7.13,0.000,0.000,0.000,0.000,0.000,18.484
8.236,4.99,6.88,0.000,0.000,0.000,0.000,0.000,18.484
8.241,5.05,6.65,0.000,0.000,0.000,0.000,0.000,18.484
8.246,5.11,6.40,0.000,0.000,0.000,0.000,0.000,18.484
8.251,5.14,6.17,0.000,0.000,0.000,0.000,0.000,18.484
8.256,5.16,5.97,0.000,0.000,0.000,0.000,0.000,18.484
8.261,5.19,5.80,0.000,0.000,0.000,0.000,0.000,18.484
8.266,5.22,5.63,0.000,0.000,0.000,0.000,0.000,18.484
8.271,5.23,5.45,0.000,0.000,0.000,0.000,0.000,18.484
8.276,5.25,5.30,0.000,0.000,0.000,0.000,0.000,18.484
8.281,5.24,5.21,0.000,0.000,0.000,0.000,0.000,18.484
8.286,5.23,5.18,0.000,0.000,0.000,0.000,0.000,18.484
8.291,5.22,5.15,0.000,0.000,0.000,0.000,0.000,18.484
8.296,5.20,5.12,0.000,0.000,0.000,0.000,0.000,18.484
8.301,5.19,5.07,0.000,0.000,0.000,0.000,0.000,18.484
8.306,5.15,5.01,0.000,0.000,0.000,0.000,0.000,18.484
8.311,5.11,4.95,0.000,0.000,0.000,0.000,0.000,18.484
8.316,5.12,4.91,0.000,0.000,0.000,0.000,0.000,18.484
8.321,5.10,4.88,0.000,0.000,0.000,0.000,0.000,18.484
8.326,5.08,4.87,0.000,0.000,0.000,0.000,0.000,18.484
8.331,5.05,4.85,0.000,0.000,0.000,0.000,0.000,18.484
8.336,5.04,4.82,0.000,0.000,0.000,0.000,0.000,18.484
8.341,5.04,4.78,0.000,0.000,0.000,0.000,0.000,18.484
8.346,5.04,4.73,0.000,0.000,0.000,0.000,0.000,18.484
8.351,5.02,4.69,0.000,0.000,0.000,0.000,0.000,18.484
8.356,5.02,4.68,0.000,0.000,0.000,0.000,0.000,18.484
8.361,4.99,4.67,0.000,0.000,0.000,0.000,0.000,18.484
8.366,4.97,4.65,0.000,0.000,0.000,0.000,0.000,18.484
8.371,4.97,4.63,0.000,0.000,0.000,0.000,0.000,18.484
8.376,5.00,4.60,0.000,0.000,0.000,0.000,0.000,18.484
8.381,5.05,4.59,0.000,0.000,0.000,0.000,0.000,18.484
8.386,5.08,4.58,0.000,0.000,0.000,0.000,0.000,18.484
8.391,5.13,4.58,0.000,0.000,0.000,0.000,0.000,18.484
8.396,5.17,4.60,0.000,0.000,0.000,0.000,0.000,18.484
8.401,5.18,4.63,0.000,0.000,0.000,0.000,0.000,18.484
8.406,5.20,4.68,0.000,0.000,0.000,0.000,0.000,18.484
8.411,5.21,4.70,0.000,0.000,0.000,0.000,0.000,18.484
8.416,5.23,4.73,0.000,0.000,0.000,0.000,0.000,18.484
8.421,5.23,4.76,0.000,0.000,0.000,0.000,0.000,18.484
8.426,5.21,4.75,0.000,0.000,0.000,0.000,0.000,18.484
8.431,5.20,4.73,0.000,0.000,0.000,0.000,0.000,18.484
8.436,5.19,4.73,0.000,0.000,0.000,0.000,0.000,18.484
8.441,5.13,4.75,0.000,0.000,0.000,0.000,0.000,18.484
8.446,5.05,4.76,0.000,0.000,0.000,0.000,0.000,18.484
8.451,4.96,4.75,0.000,0.000,0.000,0.000,0.000,18.484
8.456,4.91,4.80,0.000,0.000,0.000,0.000,0.000,18.484
8.461,4.87,4.85,0.000,0.000,0.000,0.000,0.000,18.484
8.466,4.83,4.89,0.000,0.000,0.000,0.000,0.000,18.484
8.471,4.80,4.92,0.000,0.000,0.000,0.000,0.000,18.484
8.476,4.78,4.91,0.000,0.000,0.000,0.000,0.000,18.484
8.481,4.77,4.89,0.000,0.000,0.000,0.000,0.000,18.484
8.486,4.77,4.90,0.000,0.000,0.000,0.000,0.000,18.484
8.491,4.77,4.87,0.000,0.000,0.000,0.000,0.000,18.484
8.496,4.77,4.83,0.000,0.000,0.000,0.000,0.000,18.484
8.501,4.76,4.77,0.000,0.000,0.000,0.000,0.000,18.484
8.506,4.79,4.71,0.000,0.000,0.000,0.000,0.000,18.484
8.511,4.80,4.66,0.000,0.000,0.000,0.000,0.000,18.484
8.516,4.81,4.62,0.000,0.000,0.000,0.000,0.000,18.484
8.521,4.82,4.58,0.000,0.000,0.000,0.000,0.000,18.484
8.526,4.86,4.55,0.000,0.000,0.000,0.000,0.000,18.484
8.531,4.88,4.54,0.000,0.000,0.000,0.000,0.000,18.484
8.536,4.90,4.55,0.000,0.000,0.000,0.000,0.000,18.484
8.541,4.93,4.60,0.000,0.000,0.000,0.000,0.000,18.484
8.546,4.94,4.60,0.000,0.000,0.000,0.000,0.000,18.484
8.551,4.92,4.57,0.000,0.000,0.000,0.000,0.000,18.484
8.556,4.87,4.54,0.000,0.000,0.000,0.000,0.000,18.484
8.561,4.81,4.52,0.000,0.000,0.000,0.000,0.000,18.484
8.566,4.74,4.52,0.000,0.000,0.000,0.000,0.000,18.484
8.571,4.67,4.54,0.000,0.000,0.000,0.000,0.000,18.484
8.576,4.63,4.54,0.000,0.000,0.000,0.000,0.000,18.484
8.581,4.60,4.58,0.000,0.000,0.000,0.000,0.000,18.484
8.586,4.58,4.67,0.000,0.000,0.000,0.000,0.000,18.484
8.591,4.57,4.75,0.000,0.000,0.000,0.000,0.000,18.484
8.596,4.56,4.78,0.000,0.000,0.000,0.000,0.000,18.484
8.601,4.53,4.83,0.000,0.000,0.000,0.000,0.000,18.484
8.606,4.48,4.87,0.000,0.000,0.000,0.000,0.000,18.484
8.611,4.41,4.89,0.000,0.000,0.000,0.000,0.000,18.484
8.616,4.36,4.91,0.000,0.000,0.000,0.000,0.000,18.484
8.621,4.31,4.93,0.000,0.000,0.000,0.000,0.000,18.484
8.626,4.25,4.93,0.000,0.000,0.000,0.000,0.000,18.484
8.631,4.21,4.92,0.000,0.000,0.000,0.000,0.000,18.484
8.636,4.17,4.92,0.000,0.000,0.000,0.000,0.000,18.484
8.641,4.15,4.96,0.000,0.000,0.000,0.000,0.000,18.484
8.646,4.19,5.00,0.000,0.000,0.000,0.000,0.000,18.484
8.651,4.24,5.00,0.000,0.000,0.000,0.000,0.000,18.484
8.656,4.28,4.97,0.000,0.000,0.000,0.000,0.000,18.484
8.661,4.30,4.96,0.000,0.000,0.000,0.000,0.000,18.484
8.666,4.31,4.95,0.000,0.000,0.000,0.000,0.000,18.484
8.671,4.37,4.94,0.000,0.000,0.000,0.000,0.000,18.484
8.676,4.47,4.90,0.000,0.000,0.000,0.000,0.000,18.484
8.681,4.52,4.84,0.000,0.000,0.000,0.000,0.000,18.484
8.686,4.54,4.78,0.000,0.000,0.000,0.000,0.000,18.484
8.691,4.57,4.75,0.000,0.000,0.000,0.000,0.000,18.484
8.696,4.61,4.74,0.000,0.000,0.000,0.000,0.000,18.484
8.701,4.62,4.76,0.000,0.000,0.000,0.000,0.000,18.484
8.706,4.63,4.80,0.000,0.000,0.000,0.000,0.000,18.484
8.711,4.66,4.81,0.000,0.000,0.000,0.000,0.000,18.484
8.716,4.69,4.83,0.000,0.000,0.000,0.000,0.000,18.484
8.721,4.71,4.82,0.000,0.000,0.000,0.000,0.000,18.484
8.726,4.71,4.83,0.000,0.000,0.000,0.000,0.000,18.484
8.731,4.71,4.83,0.000,0.000,0.000,0.000,0.000,18.484
8.736,4.71,4.82,0.000,0.000,0.000,0.000,0.000,18.484
8.741,4.73,4.82,0.000,0.000,0.000,0.000,0.000,18.484
8.746,4.79,4.85,0.000,0.000,0.000,0.000,0.000,18.484
8.751,4.85,4.92,0.000,0.000,0.000,0.000,0.000,18.484
8.756,4.89,4.99,0.000,0.000,0.000,0.000,0.000,18.484
8.761,4.96,5.05,0.000,0.000,0.000,0.000,0.000,18.484
8.766,5.01,5.08,0.000,0.000,0.000,0.000,0.000,18.484
8.771,5.08,5.07,0.000,0.000,0.000,0.000,0.000,18.484
8.776,5.13,5.04,0.000,0.000,0.000,0.000,0.000,18.484
8.781,5.17,5.00,0.000,0.000,0.000,0.000,0.000,18.484
8.786,5.18,4.95,0.000,0.000,0.000,0.000,0.000,18.484
8.791,5.15,4.90,0.000,0.000,0.000,0.000,0.000,18.484
8.796,5.12,4.85,0.000,0.000,0.000,0.000,0.000,18.484
8.801,5.09,4.82,0.000,0.000,0.000,0.000,0.000,18.484
8.806,5.06,4.79,0.000,0.000,0.000,0.000,0.000,18.484
8.811,5.02,4.76,0.000,0.000,0.000,0.000,0.000,18.484
8.816,5.00,4.73,0.000,0.000,0.000,0.000,0.000,18.484
8.821,4.96,4.68,0.000,0.000,0.000,0.000,0.000,18.484
8.826,4.94,4.65,0.000,0.000,0.000,0.000,0.000,18.484
8.831,4.99,4.60,0.000,0.000,0.000,0.000,0.000,18.484
8.836,5.03,4.60,0.000,0.000,0.000,0.000,0.000,18.484
8.841,5.04,4.60,0.000,0.000,0.000,0.000,0.000,18.484
8.846,5.06,4.57,0.000,0.000,0.000,0.000,0.000,18.484
8.851,5.09,4.54,0.000,0.000,0.000,0.000,0.000,18.484
8.856,5.13,4.54,0.000,0.000,0.000,0.000,0.000,18.484
8.861,5.14,4.56,0.000,0.000,0.000,0.000,0.000,18.484
8.866,5.15,4.60,0.000,0.000,0.000,0.000,0.000,18.484
8.871,5.15,4.63,0.000,0.000,0.000,0.000,0.000,18.484
8.876,5.14,4.65,0.000,0.000,0.000,0.000,0.000,18.484
8.881,5.15,4.70,0.000,0.000,0.000,0.000,0.000,18.484
8.886,5.16,4.73,0.000,0.000,0.000,0.000,0.000,18.484
8.891,5.16,4.76,0.000,0.000,0.000,0.000,0.000,18.484
8.896,5.15,4.76,0.000,0.000,0.000,0.000,0.000,18.484
8.901,5.14,4.75,0.000,0.000,0.000,0.000,0.000,18.484
8.906,5.15,4.73,0.000,0.000,0.000,0.000,0.000,18.484
8.911,5.17,4.73,0.000,0.000,0.000,0.000,0.000,18.484
8.916,5.20,4.74,0.000,0.000,0.000,0.000,0.000,18.484
8.921,5.22,4.76,0.000,0.000,0.000,0.000,0.000,18.484
8.926,5.20,4.78,0.000,0.000,0.000,0.000,0.000,18.484
8.931,5.18,4.81,0.000,0.000,0.000,0.000,0.000,18.484
8.936,5.16,4.82,0.000,0.000,0.000,0.000,0.000,18.484
8.941,5.13,4.79,0.000,0.000,0.000,0.000,0.000,18.484
8.946,5.10,4.78,0.000,0.000,0.000,0.000,0.000,18.484
8.951,5.04,4.79,0.000,0.000,0.000,0.000,0.000,18.484
8.956,4.99,4.78,0.000,0.000,0.000,0.000,0.000,18.484
8.961,4.95,4.77,0.000,0.000,0.000,0.000,0.000,18.484
8.966,4.91,4.74,0.000,0.000,0.000,0.000,0.000,18.484
8.971,4.88,4.72,0.000,0.000,0.000,0.000,0.000,18.484
8.976,4.87,4.70,0.000,0.000,0.000,0.000,0.000,18.484
8.981,4.85,4.68,0.000,0.000,0.000,0.000,0.000,18.484
8.986,4.83,4.68,0.000,0.000,0.000,0.000,0.000,18.484
8.991,4.80,4.68,0.000,0.000,0.000,0.000,0.000,18.484
8.996,4.77,4.65,0.000,0.000,0.000,0.000,0.000,18.484
9.001,4.80,4.64,0.000,0.000,0.000,0.000,0.000,18.484
9.006,4.81,4.68,0.000,0.000,0.000,0.000,0.000,18.484
9.011,4.83,4.70,0.000,0.000,0.000,0.000,0.000,18.484
9.016,4.82,4.71,0.000,0.000,0.000,0.000,0.000,18.484
9.021,4.83,4.68,0.000,0.000,0.000,0.000,0.000,18.484
9.026,4.84,4.64,0.000,0.000,0.000,0.000,0.000,18.484
9.031,4.84,4.58,0.000,0.000,0.000,0.000,0.000,18.484
9.036,4.87,4.55,0.000,0.000,0.000,0.000,0.000,18.484
9.041,4.90,4.52,0.000,0.000,0.000,0.000,0.000,18.484
9.046,4.91,4.49,0.000,0.000,0.000,0.000,0.000,18.484
9.051,4.90,4.48,0.000,0.000,0.000,0.000,0.000,18.484
9.056,4.86,4.49,0.000,0.000,0.000,0.000,0.000,18.484
9.061,4.85,4.51,0.000,0.000,0.000,0.000,0.000,18.484
9.066,4.84,4.51,0.000,0.000,0.000,0.000,0.000,18.484
9.071,4.82,4.52,0.000,0.000,0.000,0.000,0.000,18.484
9.076,4.79,4.57,0.000,0.000,0.000,0.000,0.000,18.484
9.081,4.81,4.63,0.000,0.000,0.000,0.000,0.000,18.484
9.086,4.82,4.67,0.000,0.000,0.000,0.000,0.000,18.484
9.091,4.82,4.72,0.000,0.000,0.000,0.000,0.000,18.484
9.096,4.81,4.73,0.000,0.000,0.000,0.000,0.000,18.484
9.101,4.81,4.72,0.000,0.000,0.000,0.000,0.000,18.484
9.106,4.78,4.70,0.000,0.000,0.000,0.000,0.000,18.484
9.111,4.74,4.68,0.000,0.000,0.000,0.000,0.000,18.484
9.116,4.69,4.70,0.000,0.000,0.000,0.000,0.000,18.484
9.121,4.66,4.71,0.000,0.000,0.000,0.000,0.000,18.484
9.126,4.66,4.71,0.000,0.000,0.000,0.000,0.000,18.484
9.131,4.65,4.70,0.000,0.000,0.000,0.000,0.000,18.484
9.136,4.63,4.68,0.000,0.000,0.000,0.000,0.000,18.484
9.141,4.61,4.65,0.000,0.000,0.000,0.000,0.000,18.484
9.146,4.56,4.62,0.000,0.000,0.000,0.000,0.000,18.484
9.151,4.52,4.59,0.000,0.000,0.000,0.000,0.000,18.484
9.156,4.49,4.57,0.000,0.000,0.000,0.000,0.000,18.484
9.161,4.47,4.57,0.000,0.000,0.000,0.000,0.000,18.484
9.166,4.49,4.61,0.000,0.000,0.000,0.000,0.000,18.484
9.171,4.49,4.63,0.000,0.000,0.000,0.000,0.000,18.484
9.176,4.51,4.66,0.000,0.000,0.000,0.000,0.000,18.484
9.181,4.52,4.69,0.000,0.000,0.000,0.000,0.000,18.484
9.186,4.53,4.76,0.000,0.000,0.000,0.000,0.000,18.484
9.191,4.54,4.85,0.000,0.000,0.000,0.000,0.000,18.484
9.196,4.55,4.90,0.000,0.000,0.000,0.000,0.000,18.484
9.201,4.54,4.91,0.000,0.000,0.000,0.000,0.000,18.484
9.206,4.54,4.90,0.000,0.000,0.000,0.000,0.000,18.484
9.211,4.56,4.86,0.000,0.000,0.000,0.000,0.000,18.484
9.216,4.60,4.82,0.000,0.000,0.000,0.000,0.000,18.484
9.221,4.67,4.77,0.000,0.000,0.000,0.000,0.000,18.484
9.226,4.72,4.75,0.000,0.000,0.000,0.000,0.000,18.484
9.231,4.78,4.74,0.000,0.000,0.000,0.000,0.000,18.484
9.236,4.85,4.74,0.000,0.000,0.000,0.000,0.000,18.484
9.241,4.88,4.75,0.000,0.000,0.000,0.000,0.000,18.484
9.246,4.90,4.78,0.000,0.000,0.000,0.000,0.000,18.484
9.251,4.91,4.76,0.000,0.000,0.000,0.000,0.000,18.484
9.256,4.94,4.73,0.000,0.000,0.000,0.000,0.000,18.484
9.261,4.96,4.71,0.000,0.000,0.000,0.000,0.000,18.484
9.266,4.98,4.68,0.000,0.000,0.000,0.000,0.000,18.484
9.271,4.99,4.65,0.000,0.000,0.000,0.000,0.000,18.484
9.276,5.02,4.62,0.000,0.000,0.000,0.000,0.000,18.484
9.281,5.01,4.58,0.000,0.000,0.000,0.000,0.000,18.484
9.286,5.00,4.57,0.000,0.000,0.000,0.000,0.000,18.484
9.291,4.99,4.55,0.000,0.000,0.000,0.000,0.000,18.484
9.296,4.99,4.53,0.000,0.000,0.000,0.000,0.000,18.484
9.301,4.97,4.52,0.000,0.000,0.000,0.000,0.000,18.484
9.306,4.97,4.56,0.000,0.000,0.000,0.000,0.000,18.484
9.311,4.95,4.60,0.000,0.000,0.000,0.000,0.000,18.484
9.316,4.94,4.64,0.000,0.000,0.000,0.000,0.000,18.484
9.321,4.92,4.69,0.000,0.000,0.000,0.000,0.000,18.484
9.326,4.92,4.73,0.000,0.000,0.000,0.000,0.000,18.484
9.331,4.92,4.76,0.000,0.000,0.000,0.000,0.000,18.484
9.336,4.91,4.78,0.000,0.000,0.000,0.000,0.000,18.484
9.341,4.90,4.81,0.000,0.000,0.000,0.000,0.000,18.484
9.346,4.88,4.82,0.000,0.000,0.000,0.000,0.000,18.484
9.351,4.84,4.79,0.000,0.000,0.000,0.000,0.000,18.484
9.356,4.77,4.79,0.000,0.000,0.000,0.000,0.000,18.484
9.361,4.70,4.80,0.000,0.000,0.000,0.000,0.000,18.484
9.366,4.65,4.81,0.000,0.000,0.000,0.000,0.000,18.484
9.371,4.62,4.81,0.000,0.000,0.000,0.000,0.000,18.484
9.376,4.58,4.85,0.000,0.000,0.000,0.000,0.000,18.484
9.381,4.57,4.92,0.000,0.000,0.000,0.000,0.000,18.484
9.386,4.56,4.96,0.000,0.000,0.000,0.000,0.000,18.484
9.391,4.52,5.00,0.000,0.000,0.000,0.000,0.000,18.484
9.396,4.46,5.02,0.000,0.000,0.000,0.000,0.000,18.484
9.401,4.39,5.06,0.000,0.000,0.000,0.000,0.000,18.484
9.406,4.35,5.12,0.000,0.000,0.000,0.000,0.000,18.484
9.411,4.33,5.19,0.000,0.000,0.000,0.000,0.000,18.484
9.416,4.37,5.25,0.000,0.000,0.000,0.000,0.000,18.484
9.421,4.42,5.32,0.000,0.000,0.000,0.000,0.000,18.484
9.426,4.47,5.38,0.000,0.000,0.000,0.000,0.000,18.484
9.431,4.51,5.43,0.000,0.000,0.000,0.000,0.000,18.484
9.436,4.55,5.45,0.000,0.000,0.000,0.000,0.000,18.484
9.441,4.57,5.47,0.000,0.000,0.000,0.000,0.000,18.484
9.446,4.58,5.55,0.000,0.000,0.000,0.000,0.000,18.484
9.451,4.59,5.62,0.000,0.000,0.000,0.000,0.000,18.484
9.456,4.59,5.67,0.000,0.000,0.000,0.000,0.000,18.484
9.461,4.59,5.69,0.000,0.000,0.000,0.000,0.000,18.484
9.466,4.58,5.69,0.000,0.000,0.000,0.000,0.000,18.484
9.471,4.60,5.69,0.000,0.000,0.000,0.000,0.000,18.484
9.476,4.65,5.63,0.000,0.000,0.000,0.000,0.000,18.484
9.481,4.70,5.58,0.000,0.000,0.000,0.000,0.000,18.484
9.486,4.74,5.56,0.000,0.000,0.000,0.000,0.000,18.484
9.491,4.80,5.52,0.000,0.000,0.000,0.000,0.000,18.484
9.496,4.84,5.49,0.000,0.000,0.000,0.000,0.000,18.484
9.501,4.88,5.46,0.000,0.000,0.000,0.000,0.000,18.484
9.506,4.91,5.44,0.000,0.000,0.000,0.000,0.000,18.484
9.511,4.98,5.43,0.000,0.000,0.000,0.000,0.000,18.484
9.516,5.05,5.42,0.000,0.000,0.000,0.000,0.000,18.484
9.521,5.10,5.41,0.000,0.000,0.000,0.000,0.000,18.484
9.526,5.14,5.38,0.000,0.000,0.000,0.000,0.000,18.484
9.531,5.16,5.38,0.000,0.000,0.000,0.000,0.000,18.484
9.536,5.18,5.37,0.000,0.000,0.000,0.000,0.000,18.484
9.541,5.16,5.35,0.000,0.000,0.000,0.000,0.000,18.484
9.546,5.10,5.33,0.000,0.000,0.000,0.000,0.000,18.484
9.551,5.05,5.27,0.000,0.000,0.000,0.000,0.000,18.484
9.556,5.03,5.21,0.000,0.000,0.000,0.000,0.000,18.484
9.561,5.03,5.13,0.000,0.000,0.000,0.000,0.000,18.484
9.566,5.02,5.04,0.000,0.000,0.000,0.000,0.000,18.484
9.571,5.03,4.96,0.000,0.000,0.000,0.000,0.000,18.484
9.576,5.07,4.86,0.000,0.000,0.000,0.000,0.000,18.484
9.581,5.09,4.76,0.000,0.000,0.000,0.000,0.000,18.484
9.586,5.11,4.67,0.000,0.000,0.000,0.000,0.000,18.484
9.591,5.12,4.56,0.000,0.000,0.000,0.000,0.000,18.484
9.596,5.15,4.47,0.000,0.000,0.000,0.000,0.000,18.484
9.601,5.16,4.41,0.000,0.000,0.000,0.000,0.000,18.484
9.606,5.14,4.36,0.000,0.000,0.000,0.000,0.000,18.484
9.611,5.14,4.31,0.000,0.000,0.000,0.000,0.000,18.484
9.616,5.16,4.26,0.000,0.000,0.000,0.000,0.000,18.484
9.621,5.17,4.21,0.000,0.000,0.000,0.000,0.000,18.484
9.626,5.18,4.16,0.000,0.000,0.000,0.000,0.000,18.484
9.631,5.14,4.12,0.000,0.000,0.000,0.000,0.000,18.484
9.636,5.10,4.12,0.000,0.000,0.000,0.000,0.000,18.484
9.641,5.09,4.13,0.000,0.000,0.000,0.000,0.000,18.484
9.646,5.10,4.12,0.000,0.000,0.000,0.000,0.000,18.484
9.651,5.10,4.12,0.000,0.000,0.000,0.000,0.000,18.484
9.656,5.13,4.13,0.000,0.000,0.000,0.000,0.000,18.484
9.661,5.17,4.13,0.000,0.000,0.000,0.000,0.000,18.484
9.666,5.20,4.10,0.000,0.000,0.000,0.000,0.000,18.484
9.671,5.22,4.07,0.000,0.000,0.000,0.000,0.000,18.484
9.676,5.22,4.04,0.000,0.000,0.000,0.000,0.000,18.484
9.681,5.24,4.01,0.000,0.000,0.000,0.000,0.000,18.484
9.686,5.26,4.00,0.000,0.000,0.000,0.000,0.000,18.484
9.691,5.27,4.01,0.000,0.000,0.000,0.000,0.000,18.484
9.696,5.26,4.00,0.000,0.000,0.000,0.000,0.000,18.484
9.701,5.25,4.01,0.000,0.000,0.000,0.000,0.000,18.484
9.706,5.23,4.02,0.000,0.000,0.000,0.000,0.000,18.484
9.711,5.19,4.04,0.000,0.000,0.000,0.000,0.000,18.484
9.716,5.15,4.11,0.000,0.000,0.000,0.000,0.000,18.484
9.721,5.10,4.21,0.000,0.000,0.000,0.000,0.000,18.484
9.726,5.03,4.27,0.000,0.000,0.000,0.000,0.000,18.484
9.731,4.97,4.31,0.000,0.000,0.000,0.000,0.000,18.484
9.736,4.89,4.35,0.000,0.000,0.000,0.000,0.000,18.484
9.741,4.82,4.36,0.000,0.000,0.000,0.000,0.000,18.484
9.746,4.75,4.35,0.000,0.000,0.000,0.000,0.000,18.484
9.751,4.72,4.32,0.000,0.000,0.000,0.000,0.000,18.484
9.756,4.68,4.28,0.000,0.000,0.000,0.000,0.000,18.484
9.761,4.66,4.23,0.000,0.000,0.000,0.000,0.000,18.484
9.766,4.68,4.17,0.000,0.000,0.000,0.000,0.000,18.484
9.771,4.67,4.11,0.000,0.000,0.000,0.000,0.000,18.484
9.776,4.67,4.06,0.000,0.000,0.000,0.000,0.000,18.484
9.781,4.68,4.05,0.000,0.000,0.000,0.000,0.000,18.484
9.786,4.67,4.06,0.000,0.000,0.000,0.000,0.000,18.484
9.791,4.68,4.09,0.000,0.000,0.000,0.000,0.000,18.484
9.796,4.71,4.11,0.000,0.000,0.000,0.000,0.000,18.484
9.801,4.77,4.13,0.000,0.000,0.000,0.000,0.000,18.484
9.806,4.83,4.16,0.000,0.000,0.000,0.000,0.000,18.484
9.811,4.88,4.17,0.000,0.000,0.000,0.000,0.000,18.484
9.816,4.93,4.20,0.000,0.000,0.000,0.000,0.000,18.484
9.821,4.98,4.21,0.000,0.000,0.000,0.000,0.000,18.484
9.826,4.99,4.24,0.000,0.000,0.000,0.000,0.000,18.484
9.831,4.99,4.28,0.000,0.000,0.000,0.000,0.000,18.484
9.836,5.02,4.31,0.000,0.000,0.000,0.000,0.000,18.484
9.841,5.03,4.34,0.000,0.000,0.000,0.000,0.000,18.484
9.846,5.02,4.38,0.000,0.000,0.000,0.000,0.000,18.484
9.851,5.02,4.38,0.000,0.000,0.000,0.000,0.000,18.484
9.856,5.03,4.37,0.000,0.000,0.000,0.000,0.000,18.484
9.861,5.03,4.32,0.000,0.000,0.000,0.000,0.000,18.484
9.866,5.08,4.27,0.000,0.000,0.000,0.000,0.000,18.484
9.871,5.14,4.20,0.000,0.000,0.000,0.000,0.000,18.484
9.876,5.23,4.14,0.000,0.000,0.000,0.000,0.000,18.484
9.881,5.29,4.10,0.000,0.000,0.000,0.000,0.000,18.484
9.886,5.37,4.07,0.000,0.000,0.000,0.000,0.000,18.484
9.891,5.45,4.06,0.000,0.000,0.000,0.000,0.000,18.484
9.896,5.49,4.07,0.000,0.000,0.000,0.000,0.000,18.484
9.901,5.51,4.06,0.000,0.000,0.000,0.000,0.000,18.484
9.906,5.50,4.05,0.000,0.000,0.000,0.000,0.000,18.484
9.911,5.47,4.05,0.000,0.000,0.000,0.000,0.000,18.484
9.916,5.46,4.02,0.000,0.000,0.000,0.000,0.000,18.484
9.921,5.47,3.96,0.000,0.000,0.000,0.000,0.000,18.484
9.926,5.49,3.90,0.000,0.000,0.000,0.000,0.000,18.484
9.931,5.51,3.87,0.000,0.000,0.000,0.000,0.000,18.484
9.936,5.51,3.88,0.000,0.000,0.000,0.000,0.000,18.484
9.941,5.52,3.88,0.000,0.000,0.000,0.000,0.000,18.484
9.946,5.52,3.89,0.000,0.000,0.000,0.000,0.000,18.484
9.951,5.52,3.91,0.000,0.000,0.000,0.000,0.000,18.484
9.956,5.50,3.95,0.000,0.000,0.000,0.000,0.000,18.484
9.961,5.46,4.00,0.000,0.000,0.000,0.000,0.000,18.484
9.966,5.41,4.07,0.000,0.000,0.000,0.000,0.000,18.484
9.971,5.36,4.10,0.000,0.000,0.000,0.000,0.000,18.484
9.976,5.32,4.13,0.000,0.000,0.000,0.000,0.000,18.484
9.981,5.29,4.14,0.000,0.000,0.000,0.000,0.000,18.484
9.986,5.26,4.13,0.000,0.000,0.000,0.000,0.000,18.484
9.991,5.25,4.16,0.000,0.000,0.000,0.000,0.000,18.484
9.996,5.24,4.20,0.000,0.000,0.000,0.000,0.000,18.484
